#t	zeta	theta
0	0.9	0
0.032006812118304	0.89760881810042	0.036881607066882
0.064013624236609	0.89575485501339	0.074530571137746
0.096020436354913	0.89442133229064	0.11281536498518
0.12802724847322	0.89358933712675	0.1516112084304
0.16003406059152	0.89323802544434	0.19080052265351
0.19204087270983	0.89334483470574	0.23027331226956
0.22404768482813	0.89388570453497	0.26992747415942
0.25605449694643	0.89483530319157	0.30966903268099
0.28806130906474	0.8961672579122	0.34941230151677
0.32006812118304	0.89785438712837	0.38907997303299
0.35207493330135	0.89986893257836	0.42860313662833
0.38408174541965	0.90218278935789	0.46792122813127
0.41608855753796	0.90476773199809	0.50698191285946
0.44809536965626	0.90759563471917	0.54574090547768
0.48010218177456	0.9106386840842	0.58416173027828
0.51210899389287	0.91386958236812	0.62221542595605
0.54411580601117	0.91726174006198	0.65988019935356
0.57612261812948	0.92078945605067	0.69714103301167
0.60812943024778	0.92442808413197	0.73398925166816
0.64013624236609	0.92815418468585	0.77042205310502
0.67214305448439	0.93194566045262	0.80644200894878
0.7041498666027	0.93578187553703	0.84205654117721
0.736156678721	0.93964375691962	0.87727738017961
0.7681634908393	0.94351387792655	0.91212001025534
0.80017030295761	0.94737652328201	0.94660310841746
0.83217711507591	0.95121773554251	0.98074798229545
0.86418392719422	0.9550253428871	1.0145780128041
0.89619073931252	0.95878896841211	1.0481181070668
0.92819755143083	0.96250002124938	1.081394166853
0.96020436354913	0.96615166999399	1.1144325775135
0.99221117566743	0.96973879908792	1.1472597220752
1.0242179877857	0.9732579489594	1.1799015247992
1.056224799904	0.97670724086235	1.2123830281028
1.0882316120223	0.98008628749471	1.2447280063191
1.1202384241407	0.98339609059798	1.2769586193033
1.152245236259	0.98663892685128	1.3090951084144
1.1842520483773	0.98981822347105	1.3411555368953
1.2162588604956	0.99293842501135	1.3731555761563
1.2482656726139	0.99600485292868	1.4051083389422
1.2802724847322	0.99902355952872	1.4370242598303
1.3122792968505	1.0020011779504	1.4689110229789
1.3442861089688	1.0049447698643	1.5007735365214
1.3762929210871	1.0078616725679	1.5326139524894
1.4082997332054	1.0107593471495	1.5644317306543
1.4403065453237	1.0136452293663	1.5962237442012
1.472313357442	1.0165265848387	1.6279844247004
1.5043201695603	1.0194103701066	1.6597059434245
1.5363269816786	1.022303101019	1.6913784256731
1.5683337937969	1.0252107298448	1.7229901944206
1.6003406059152	1.0281385323894	1.7545280392973
1.6323474180335	1.031091006294	1.7859775066509
1.6643542301518	1.034071781569	1.8173232062194
1.6963610422701	1.0370835442807	1.8485491297804
1.7283678543884	1.0401279741715	1.8796389770219
1.7603746665067	1.043205696843	1.9105764838153
1.792381478625	1.046316250978	1.9413457480539
1.8243882907433	1.0494580709192	1.9719315482596
1.8563951028617	1.0526284847608	2.0023196502448
1.88840191498	1.0558237279468	2.0324970972585
1.9204087270983	1.0590389722062	2.0624524792306
1.9524155392166	1.0622683694962	2.0921761769628
1.9844223513349	1.0655051104659	2.121660577396
2.0164291634532	1.0687414968008	2.1509002564043
2.0484359755715	1.0719690266629	2.1798921259262
2.0804427876898	1.0751784923003	2.2086355426408
2.1124495998081	1.0783600887736	2.2371323758252
2.1444564119264	1.0815035326232	2.2653870324836
2.1764632240447	1.0845981891975	2.2934064383192
2.208470036163	1.0876332072616	2.3211999736153
2.2404768482813	1.090597659429	2.3487793636053
2.2724836603996	1.0934806868842	2.3761585234283
2.3044904725179	1.0962716468163	2.4033533582924
2.3364972846362	1.0989602609421	2.4303815199882
2.3685040967545	1.1015367634753	2.4572621214096
2.4005109088728	1.1039920468916	2.4840154112427
2.4325177209911	1.1063178038512	2.5106624114695
2.4645245331094	1.1085066636622	2.5372245207973
2.4965313452277	1.1105523217123	2.563723087563
2.528538157346	1.1124496603528	2.5901789560689
2.5605449694643	1.1141948597907	2.616611990678
2.5925517815826	1.1157854976293	2.6430405823317
2.624558593701	1.1172206358014	2.6694811424424
2.6565654058193	1.1185008937483	2.695947589359
2.6885722179376	1.1196285068244	2.7224508328013
2.7205790300559	1.1206073690409	2.7489982618053
2.7525858421742	1.1214430594094	2.7755932418145
2.7845926542925	1.1221428512941	2.8022346265949
2.8165994664108	1.1227157043464	2.8289162906347
2.8486062785291	1.1231722387556	2.8556266876217
2.8806130906474	1.1235246917206	2.8823484404666
2.9126199027657	1.1237868562182	2.9090579681618
2.944626714884	1.1239740023119	2.9357251545342
2.9766335270023	1.1241027814218	2.9623130636668
3.0086403391206	1.124191114136	2.9887777064314
3.0406471512389	1.1242580623162	3.0150678621965
3.0726539633572	1.1243236864019	3.0411249593502
3.1046607754755	1.1244088889732	3.0668830178164
3.1366675875938	1.1245352457735	3.0922686562415
3.1686743997121	1.1247248255258	3.1172011659975
3.2006812118304	1.125	3.1415926535898
