#t	zeta	theta
0	0.9	0
0.032006812118304	0.89530217984014	0.0055532769155424
0.064013624236609	0.89072001977931	0.012651259747232
0.096020436354913	0.88625804185628	0.021286943642965
0.12802724847322	0.88192064950457	0.031451806225333
0.16003406059152	0.87771212320676	0.043135816002187
0.19204087270983	0.87363661627021	0.056327442266505
0.22404768482813	0.86969815072821	0.071013666475808
0.25605449694643	0.86590061337078	0.087179995099892
0.28806130906474	0.86224775190878	0.10481047392419
0.32006812118304	0.85874317127548	0.12388770379465
0.35207493330135	0.85539033006885	0.14439285778862
0.38408174541965	0.85219253713835	0.16630569979472
0.41608855753796	0.84915294831955	0.18960460448346
0.44809536965626	0.84627456331963	0.21426657864882
0.48010218177456	0.84356022275707	0.24026728389979
0.51210899389287	0.8410126053583	0.26758106067937
0.54411580601117	0.83863422531412	0.29618095358752
0.57612261812948	0.83642742979848	0.32603873798285
0.60812943024778	0.83439439665213	0.35712494783694
0.64013624236609	0.83253713223334	0.38940890481373
0.67214305448439	0.83085746943786	0.42285874854538
0.7041498666027	0.82935706589007	0.45744146807459
0.736156678721	0.82803740230713	0.49312293443239
0.7681634908393	0.82689978103768	0.52986793431937
0.80017030295761	0.82594532477655	0.56764020485691
0.83217711507591	0.82517497545685	0.6064024693743
0.86418392719422	0.82458949332036	0.64611647419628
0.89619073931252	0.82418945616724	0.68674302639483
0.92819755143083	0.82397525878588	0.72824203246782
0.96020436354913	0.82394711256323	0.7705725379065
0.99221117566743	0.82410504527622	0.81369276761262
1.0242179877857	0.82444890106431	0.85756016712544
1.056224799904	0.82497834058338	0.9021314446178
1.0882316120223	0.82569284134052	0.94736261361999
1.1202384241407	0.82659169820976	0.99320903642901
1.152245236259	0.82767402412789	1.0396254681607
1.1842520483773	0.82893875096989	1.0865661014008
1.2162588604956	0.83038463060306	1.1339846114115
1.2482656726139	0.83201023611877	1.1818342018484
1.2802724847322	0.83381396324065	1.2300676509426
1.3122792968505	0.83579403190777	1.2786373581033
1.3442861089688	0.83794848803144	1.3274953908933
1.3762929210871	0.84027520542355	1.3765935323329
1.4082997332054	0.84277188789497	1.4258833284843
1.4403065453237	0.8454360715215	1.4753161362694
1.472313357442	0.84826512707558	1.5248431714751
1.5043201695603	0.85125626262091	1.5744155568972
1.5363269816786	0.85440652626784	1.6239843705761
1.5683337937969	0.85771280908649	1.6735006940772
1.6003406059152	0.86117184817489	1.7229156607675
1.6323474180335	0.86478022987907	1.7721805040407
1.6643542301518	0.86853439316194	1.8212466054444
1.6963610422701	0.87243063311757	1.8700655426604
1.7283678543884	0.87646510462754	1.9185891372914
1.7603746665067	0.88063382615555	1.9667695024081
1.792381478625	0.88493268367675	2.0145590898068
1.8243882907433	0.88935743473778	2.0619107369345
1.8563951028617	0.89390371264353	2.1087777134325
1.88840191498	0.8985670307666	2.155113767253
1.9204087270983	0.90334278697501	2.2008731703054
1.9524155392166	0.90822626817397	2.2460107635833
1.9844223513349	0.91321265495711	2.2904820017317
2.0164291634532	0.91829702636271	2.3342429970077
2.0484359755715	0.92347436473003	2.3772505625922
2.0804427876898	0.92873956065116	2.4194622552103
2.1124495998081	0.93408741801341	2.4608364170178
2.1444564119264	0.93951265912721	2.5013322167121
2.1764632240447	0.94500992993459	2.540909689828
2.208470036163	0.95057380529295	2.5795297781778
2.2404768482813	0.95619879432904	2.617154368397
2.2724836603996	0.9618793458578	2.6537463295574
2.3044904725179	0.9676098538607	2.6892695498112
2.3364972846362	0.97338466301818	2.7236889720288
2.3685040967545	0.97919807429081	2.756970628396
2.4005109088728	0.98504435054352	2.7890816739361
2.4325177209911	0.99091772220749	2.8199904189239
2.4645245331094	0.99681239297398	2.8496663601598
2.4965313452277	1.0027225455146	2.8780802110727
2.528538157346	1.0086423472224	2.905203930622
2.5605449694643	1.0145659559677	2.9310107509714
2.5925517815826	1.0204875258639	2.9554752039047
2.624558593701	1.0264012130364	2.9785731459607
2.6565654058193	1.03230118139	3.0002817822591
2.6885722179376	1.0381816083682	3.0205796889968
2.7205790300559	1.0440366906994	3.0394468345905
2.7525858421742	1.0498606501245	3.0568645994454
2.7845926542925	1.0556477390984	3.0728157943303
2.8165994664108	1.0613922464632	3.0872846773418
2.8486062785291	1.0670885030835	3.1002569694391
2.8806130906474	1.0727308874419	3.1117198685362
2.9126199027657	1.0783138311861	3.1216620621355
2.944626714884	1.0838318246247	3.1300737384924
2.9766335270023	1.0892794221644	3.1369465962977
3.0086403391206	1.0946512476842	3.1422738528707
3.0406471512389	1.0999419998407	3.1460502508522
3.0726539633572	1.1051464573003	3.1482720633933
3.1046607754755	1.110259483892	3.1489370978334
3.1366675875938	1.1152760336757	3.1480446978637
3.1686743997121	1.1201911559224	3.1455957441753
3.2006812118304	1.125	3.1415926535898
