#t	zeta	theta
0	0.9	0
0.032006812118304	0.89853235921959	0.039666754274492
0.064013624236609	0.89735138034215	0.079588524564693
0.096020436354913	0.89645099472329	0.11967916872456
0.12802724847322	0.89582424956705	0.15986045271973
0.16003406059152	0.89546340049433	0.20006205637554
0.19204087270983	0.89536000724366	0.24022151178597
0.22404768482813	0.89550503157389	0.28028407719833
0.25605449694643	0.89588893643163	0.32020254970399
0.28806130906474	0.89650178544858	0.35993702054402
0.32006812118304	0.8973333418445	0.39945457727455
0.35207493330135	0.89837316583054	0.43872895742789
0.38408174541965	0.89961070963483	0.47774015864794
0.41608855753796	0.90103540930707	0.51647401056992
0.44809536965626	0.9026367725014	0.55492171395253
0.48010218177456	0.9044044614863	0.59307935275412
0.51210899389287	0.90632837068617	0.63094738497121
0.54411580601117	0.90839869812143	0.66853011812841
0.57612261812948	0.91060601018141	0.70583517532184
0.60812943024778	0.91294129923627	0.74287295767529
0.64013624236609	0.91539603367081	0.77965610896957
0.67214305448439	0.91796220000231	0.81619898805271
0.7041498666027	0.9206323368269	0.85251715443325
0.736156678721	0.92339956042304	0.88862687220427
0.7681634908393	0.92625758192538	0.92454463714328
0.80017030295761	0.92920071606802	0.96028673148756
0.83217711507591	0.93222388158054	0.99586881049829
0.86418392719422	0.93532259340355	1.0313055245047
0.89619073931252	0.93849294697202	1.0666101796657
0.92819755143083	0.94173159489251	1.1017944402045
0.96020436354913	0.9450357164157	1.1368680743697
0.99221117566743	0.9484029801756	1.1718387458526
1.0242179877857	0.95183150073274	1.2067118518616
1.056224799904	0.95531978951814	1.2414904085086
1.0882316120223	0.95886670082928	1.2761749836269
1.1202384241407	0.9624713735761	1.3107636765973
1.152245236259	0.96613316951557	1.3452521442315
1.1842520483773	0.96985160874632	1.3796336712483
1.2162588604956	0.97362630325976	1.4138992833789
1.2482656726139	0.97745688936178	1.4480379006687
1.2802724847322	0.98134295978814	1.4820365280979
1.3122792968505	0.98528399633779	1.5158804802309
1.3442861089688	0.98927930384152	1.5495536362335
1.3762929210871	0.99332794626812	1.58303872126
1.4082997332054	0.99742868574731	1.6163176099232
1.4403065453237	1.0015799252579	1.6493716473173
1.472313357442	1.0057796556921	1.682181982865
1.5043201695603	1.0100254079605	1.71472991212
1.5363269816786	1.0143142107529	1.7469972215601
1.5683337937969	1.0186425545088	1.7789665313658
1.6003406059152	1.0230063620924	1.8106216311967
1.6323474180335	1.0274009665937	1.8419478040397
1.6643542301518	1.0318210966094	1.8729321333258
1.6963610422701	1.0362608692764	1.9035637886821
1.7283678543884	1.0407137912552	1.9338342859044
1.7603746665067	1.0451727677764	1.9637377170074
1.792381478625	1.0496301197817	1.9932709465199
1.8243882907433	1.0540776091074	2.0224337705503
1.8563951028617	1.0585064715745	2.0512290355415
1.88840191498	1.0629074577665	2.079662714063
1.9204087270983	1.0672708811971	2.1077439354509
1.9524155392166	1.0715866734898	2.1354849695926
1.9844223513349	1.0758444461174	2.1629011626598
2.0164291634532	1.0800335581777	2.1900108241241
2.0484359755715	1.0841431896164	2.2168350649226
2.0804427876898	1.0881624192458	2.243397587189
2.1124495998081	1.0920803068522	2.2697244265084
2.1444564119264	1.0958859786385	2.2958436481998
2.1764632240447	1.0995687152039	2.3217849996585
2.208470036163	1.1031180412282	2.3475795213126
2.2404768482813	1.1065238160031	2.3732591192432
2.2724836603996	1.1097763239313	2.3988561029957
2.3044904725179	1.112866364106	2.4244026925479
2.3364972846362	1.1157853380769	2.4499304988195
2.3685040967545	1.1185253349199	2.4754699824713
2.4005109088728	1.1210792127364	2.5010498960805
2.4325177209911	1.1234406757348	2.5266967150591
2.4645245331094	1.1256043460744	2.5524340629196
2.4965313452277	1.1275658296922	2.5782821366798
2.528538157346	1.1293217753785	2.6042571383264
2.5605449694643	1.1308699264188	2.6303707183374
2.5925517815826	1.1322091641833	2.656629437281
2.624558593701	1.1333395431066	2.6830342514727
2.6565654058193	1.1342623165757	2.709580028578
2.6885722179376	1.1349799533194	2.7362550988964
2.7205790300559	1.1354961439742	2.7630408478556
2.7525858421742	1.1358157975864	2.7899113549808
2.7845926542925	1.1359450278974	2.8168330842924
2.8165994664108	1.1358911293506	2.8437646307154
2.8486062785291	1.1356625428474	2.8706565266743
2.8806130906474	1.1352688113744	2.8974511125865
2.9126199027657	1.1347205257126	2.9240824744719
2.944626714884	1.1340292605319	2.9504764513592
2.9766335270023	1.1332075012617	2.9765507146036
3.0086403391206	1.1322685622149	3.0022149206356
3.0406471512389	1.131226496524	3.0273709380468
3.0726539633572	1.1300959985267	3.0519131492804
3.1046607754755	1.128892299312	3.0757288265549
3.1366675875938	1.1276310562032	3.0986985809949
3.1686743997121	1.1263282370182	3.1206968832941
3.2006812118304	1.125	3.1415926535898
