#t	zeta	theta
0	0.9	0
0.032006812118304	0.90004318304025	0.039432103092135
0.064013624236609	0.90024763958848	0.078875546881078
0.096020436354913	0.90060822513831	0.11831338001044
0.12802724847322	0.9011199887982	0.15772941812354
0.16003406059152	0.90177816141194	0.19710822509237
0.19204087270983	0.90257814400583	0.23643509448884
0.22404768482813	0.90351549656254	0.27569603129847
0.25605449694643	0.90458592712164	0.31487773387649
0.28806130906474	0.90578528120685	0.35396757614623
0.32006812118304	0.90710953157984	0.39295359003997
0.35207493330135	0.90855476832089	0.43182444818211
0.38408174541965	0.91011718923606	0.4705694468148
0.41608855753796	0.91179309059113	0.50917848896585
0.44809536965626	0.91357885817219	0.54764206785911
0.48010218177456	0.91547095867289	0.58595125056714
0.51210899389287	0.9174659314084	0.62409766190637
0.54411580601117	0.91956038035603	0.66207346857456
0.57612261812948	0.9217509665225	0.69987136353064
0.60812943024778	0.92403440063794	0.73748455061697
0.64013624236609	0.92640743617649	0.77490672942395
0.67214305448439	0.9288668627037	0.81213208039706
0.7041498666027	0.93140949955043	0.84915525018619
0.736156678721	0.93403218981359	0.88597133723742
0.7681634908393	0.93673179468347	0.9225758776272
0.80017030295761	0.93950518809777	0.95896483113879
0.83217711507591	0.9423492517223	0.99513456758127
0.86418392719422	0.94526087025834	1.0310818533507
0.89619073931252	0.9482369270767	1.0668038382339
0.92819755143083	0.95127430017848	1.1022980424545
0.96020436354913	0.95436985848244	1.1375623439611
0.99221117566743	0.95752045843909	1.1725949659585
1.0242179877857	0.96072294097143	1.2073944646806
1.056224799904	0.96397412874242	1.2419597174059
1.0882316120223	0.96727082374908	1.2762899107157
1.1202384241407	0.97060980524322	1.3103845289944
1.152245236259	0.97398782797899	1.3442433431717
1.1842520483773	0.97740162078695	1.3778663997086
1.2162588604956	0.98084788547488	1.411254009824
1.2482656726139	0.98432329605533	1.4444067389649
1.2802724847322	0.98782449829972	1.4773253965188
1.3122792968505	0.9913481096192	1.5100110257681
1.3442861089688	0.99489071927219	1.5424648940869
1.3762929210871	0.99844888889853	1.5746884833807
1.4082997332054	1.0020191533804	1.6066834807682
1.4403065453237	1.0055980220298	1.638451769505
1.472313357442	1.0091819801028	1.6699954201503
1.5043201695603	1.0127674906404	1.7013166819762
1.5363269816786	1.0163509966364	1.7324179746181
1.5683337937969	1.019928923531	1.7633018799694
1.6003406059152	1.0234976820323	1.7939711343165
1.6323474180335	1.0270536712638	1.824428620718
1.6643542301518	1.0305932822384	1.854677361625
1.6963610422701	1.0341129016597	1.8847205117445
1.7283678543884	1.0376089160494	1.9145613511449
1.7603746665067	1.0410777162016	1.9442032786039
1.792381478625	1.0445157019639	1.9736498051988
1.8243882907433	1.0479192873451	2.0029045481393
1.8563951028617	1.0512849059492	2.0319712248423
1.88840191498	1.054609016737	2.0608536472496
1.9204087270983	1.057888110113	2.0895557163879
1.9524155392166	1.0611187143405	2.1180814171703
1.9844223513349	1.0642974022822	2.1464348134418
2.0164291634532	1.0674207984679	2.1746200432654
2.0484359755715	1.0704855864893	2.2026413144523
2.0804427876898	1.0734885167206	2.2305029003329
2.1124495998081	1.0764264143663	2.2582091357713
2.1444564119264	1.079296187836	2.2857644134217
2.1764632240447	1.0820948374449	2.3131731802273
2.208470036163	1.0848194644423	2.3404399341614
2.2404768482813	1.0874672803652	2.3675692212112
2.2724836603996	1.0900356167202	2.3945656326039
2.3044904725179	1.0925219349906	2.4214338022748
2.3364972846362	1.0949238369714	2.4481784045782
2.3685040967545	1.0972390754303	2.4748041522407
2.4005109088728	1.0994655650955	2.5013157945565
2.4325177209911	1.1016013939699	2.5277181158253
2.4645245331094	1.1036448349728	2.554015934033
2.4965313452277	1.1055943579075	2.5802140997739
2.528538157346	1.1074486417556	2.6063174954158
2.5605449694643	1.1092065872988	2.6323310345079
2.5925517815826	1.110867330066	2.6582596614299
2.624558593701	1.1124302536085	2.6841083512847
2.6565654058193	1.1138950031009	2.709882110033
2.6885722179376	1.1152614992691	2.7355859748699
2.7205790300559	1.1165299526449	2.7612250148444
2.7525858421742	1.1177008781472	2.7868043317212
2.7845926542925	1.1187751099901	2.8123290610848
2.8165994664108	1.119753816917	2.8378043736858
2.8486062785291	1.1206385177627	2.8632354770299
2.8806130906474	1.1214310973406	2.8886276172089
2.9126199027657	1.1221338226578	2.9139860809748
2.944626714884	1.1227493594562	2.9393161980552
2.9766335270023	1.1232807890806	2.9646233437123
3.0086403391206	1.1237316256733	2.9899129415431
3.0406471512389	1.1241058336955	3.0151904665226
3.0726539633572	1.1244078457752	3.0404614482899
3.1046607754755	1.124642580882	3.0657314746752
3.1366675875938	1.1248154628284	3.0910061954709
3.1686743997121	1.124932439098	3.1162913264436
3.2006812118304	1.125	3.1415926535898
