#t	zeta	theta
0	0.9	0
0.01	0.90000686	0.012345585
0.02	0.90002743	0.024690794
0.03	0.90006172	0.03703525
0.04	0.90010971	0.049378577
0.05	0.90017141	0.061720401
0.06	0.90024678	0.074060346
0.07	0.90033583	0.086398037
0.08	0.90043854	0.0987331
0.09	0.90055488	0.11106516
0.1	0.90068484	0.12339385
0.11	0.90082839	0.1357188
0.12	0.90098551	0.14803964
0.13	0.90115616	0.16035599
0.14	0.90134032	0.1726675
0.15	0.90153796	0.18497379
0.16	0.90174903	0.1972745
0.17	0.9019735	0.20956928
0.18	0.90221133	0.22185775
0.19	0.90246248	0.23413957
0.2	0.9027269	0.24641437
0.21	0.90300453	0.2586818
0.22	0.90329535	0.27094151
0.23	0.90359928	0.28319316
0.24	0.90391628	0.29543639
0.25	0.90424629	0.30767085
0.26	0.90458925	0.31989622
0.27	0.9049451	0.33211215
0.28	0.90531377	0.3443183
0.29	0.90569521	0.35651434
0.3	0.90608934	0.36869994
0.31	0.9064961	0.38087477
0.32	0.9069154	0.39303852
0.33	0.90734719	0.40519085
0.34	0.90779138	0.41733146
0.35	0.90824789	0.42946003
0.36	0.90871666	0.44157625
0.37	0.90919758	0.45367982
0.38	0.90969059	0.46577042
0.39	0.91019559	0.47784777
0.4	0.91071251	0.48991157
0.41	0.91124124	0.50196153
0.42	0.91178171	0.51399735
0.43	0.91233381	0.52601876
0.44	0.91289746	0.53802548
0.45	0.91347256	0.55001723
0.46	0.914059	0.56199374
0.47	0.91465671	0.57395475
0.48	0.91526556	0.58589999
0.49	0.91588547	0.5978292
0.5	0.91651632	0.60974214
0.51	0.91715802	0.62163854
0.52	0.91781046	0.63351817
0.53	0.91847352	0.64538079
0.54	0.91914711	0.65722615
0.55	0.91983111	0.66905403
0.56	0.92052541	0.68086421
0.57	0.9212299	0.69265645
0.58	0.92194447	0.70443054
0.59	0.922669	0.71618626
0.6	0.92340337	0.72792341
0.61	0.92414747	0.73964179
0.62	0.92490118	0.75134119
0.63	0.92566438	0.76302142
0.64	0.92643696	0.77468228
0.65	0.92721878	0.78632359
0.66	0.92800974	0.79794518
0.67	0.9288097	0.80954686
0.68	0.92961855	0.82112846
0.69	0.93043616	0.83268982
0.7	0.9312624	0.84423077
0.71	0.93209716	0.85575115
0.72	0.9329403	0.86725082
0.73	0.9337917	0.87872961
0.74	0.93465123	0.89018739
0.75	0.93551877	0.90162402
0.76	0.93639418	0.91303937
0.77	0.93727733	0.92443329
0.78	0.93816811	0.93580567
0.79	0.93906637	0.94715639
0.8	0.93997199	0.95848532
0.81	0.94088484	0.96979236
0.82	0.94180479	0.98107739
0.83	0.9427317	0.99234032
0.84	0.94366545	1.003581
0.85	0.9446059	1.0147995
0.86	0.94555292	1.0259955
0.87	0.94650639	1.037169
0.88	0.94746616	1.04832
0.89	0.94843211	1.0594483
0.9	0.9494041	1.070554
0.91	0.95038201	1.0816368
0.92	0.95136569	1.0926968
0.93	0.95235503	1.1037338
0.94	0.95334988	1.1147479
0.95	0.95435011	1.125739
0.96	0.9553556	1.136707
0.97	0.9563662	1.1476519
0.98	0.9573818	1.1585736
0.99	0.95840225	1.1694721
1	0.95942743	1.1803474
1.01	0.9604572	1.1911994
1.02	0.96149143	1.2020281
1.03	0.96252999	1.2128335
1.04	0.96357276	1.2236156
1.05	0.9646196	1.2343743
1.06	0.96567038	1.2451096
1.07	0.96672498	1.2558215
1.08	0.96778325	1.2665101
1.09	0.96884508	1.2771753
1.1	0.96991034	1.2878171
1.11	0.97097889	1.2984354
1.12	0.97205062	1.3090305
1.13	0.97312539	1.3196021
1.14	0.97420307	1.3301504
1.15	0.97528354	1.3406753
1.16	0.97636668	1.351177
1.17	0.97745236	1.3616553
1.18	0.97854045	1.3721103
1.19	0.97963083	1.3825421
1.2	0.98072338	1.3929507
1.21	0.98181797	1.4033361
1.22	0.98291449	1.4136983
1.23	0.9840128	1.4240375
1.24	0.98511279	1.4343535
1.25	0.98621434	1.4446465
1.26	0.98731732	1.4549166
1.27	0.98842162	1.4651637
1.28	0.98952713	1.4753879
1.29	0.99063371	1.4855893
1.3	0.99174125	1.4957679
1.31	0.99284965	1.5059238
1.32	0.99395877	1.5160571
1.33	0.99506851	1.5261677
1.34	0.99617875	1.5362558
1.35	0.99728937	1.5463215
1.36	0.99840027	1.5563647
1.37	0.99951133	1.5663856
1.38	1.0006224	1.5763843
1.39	1.0017335	1.5863608
1.4	1.0028444	1.5963152
1.41	1.003955	1.6062476
1.42	1.0050652	1.616158
1.43	1.0061749	1.6260465
1.44	1.007284	1.6359133
1.45	1.0083923	1.6457584
1.46	1.0094999	1.6555818
1.47	1.0106065	1.6653838
1.48	1.0117122	1.6751643
1.49	1.0128166	1.6849234
1.5	1.0139199	1.6946613
1.51	1.0150218	1.7043781
1.52	1.0161223	1.7140738
1.53	1.0172212	1.7237485
1.54	1.0183185	1.7334024
1.55	1.0194141	1.7430355
1.56	1.0205078	1.7526479
1.57	1.0215996	1.7622398
1.58	1.0226894	1.7718112
1.59	1.0237771	1.7813622
1.6	1.0248625	1.790893
1.61	1.0259457	1.8004037
1.62	1.0270264	1.8098943
1.63	1.0281046	1.819365
1.64	1.0291803	1.8288158
1.65	1.0302533	1.838247
1.66	1.0313235	1.8476585
1.67	1.0323908	1.8570506
1.68	1.0334552	1.8664233
1.69	1.0345166	1.8757767
1.7	1.0355749	1.885111
1.71	1.0366299	1.8944263
1.72	1.0376817	1.9037226
1.73	1.0387301	1.9130002
1.74	1.039775	1.9222591
1.75	1.0408164	1.9314994
1.76	1.0418542	1.9407212
1.77	1.0428883	1.9499248
1.78	1.0439186	1.9591101
1.79	1.044945	1.9682774
1.8	1.0459675	1.9774267
1.81	1.046986	1.9865582
1.82	1.0480004	1.995672
1.83	1.0490106	2.0047682
1.84	1.0500166	2.0138469
1.85	1.0510182	2.0229082
1.86	1.0520155	2.0319524
1.87	1.0530083	2.0409794
1.88	1.0539965	2.0499895
1.89	1.0549802	2.0589828
1.9	1.0559591	2.0679593
1.91	1.0569333	2.0769193
1.92	1.0579027	2.0858628
1.93	1.0588672	2.0947899
1.94	1.0598268	2.1037009
1.95	1.0607813	2.1125957
1.96	1.0617307	2.1214746
1.97	1.0626749	2.1303377
1.98	1.063614	2.1391851
1.99	1.0645477	2.148017
2	1.0654761	2.1568334
2.01	1.0663991	2.1656345
2.02	1.0673166	2.1744204
2.03	1.0682286	2.1831913
2.04	1.069135	2.1919472
2.05	1.0700357	2.2006884
2.06	1.0709307	2.2094149
2.07	1.0718199	2.2181269
2.08	1.0727033	2.2268244
2.09	1.0735808	2.2355078
2.1	1.0744524	2.244177
2.11	1.0753179	2.2528321
2.12	1.0761774	2.2614734
2.13	1.0770308	2.270101
2.14	1.077878	2.278715
2.15	1.078719	2.2873154
2.16	1.0795538	2.2959025
2.17	1.0803822	2.3044764
2.18	1.0812042	2.3130373
2.19	1.0820198	2.3215851
2.2	1.0828289	2.3301201
2.21	1.0836315	2.3386425
2.22	1.0844276	2.3471522
2.23	1.085217	2.3556496
2.24	1.0859998	2.3641346
2.25	1.0867758	2.3726075
2.26	1.0875451	2.3810683
2.27	1.0883075	2.3895172
2.28	1.0890632	2.3979544
2.29	1.0898119	2.4063799
2.3	1.0905537	2.4147939
2.31	1.0912885	2.4231965
2.32	1.0920162	2.4315878
2.33	1.092737	2.439968
2.34	1.0934506	2.4483372
2.35	1.094157	2.4566956
2.36	1.0948563	2.4650432
2.37	1.0955483	2.4733803
2.38	1.0962331	2.4817068
2.39	1.0969106	2.4900231
2.4	1.0975807	2.4983291
2.41	1.0982434	2.506625
2.42	1.0988988	2.514911
2.43	1.0995466	2.5231871
2.44	1.100187	2.5314536
2.45	1.1008199	2.5397105
2.46	1.1014452	2.547958
2.47	1.1020629	2.5561961
2.48	1.102673	2.5644251
2.49	1.1032755	2.5726451
2.5	1.1038702	2.5808561
2.51	1.1044572	2.5890584
2.52	1.1050365	2.597252
2.53	1.105608	2.605437
2.54	1.1061716	2.6136137
2.55	1.1067275	2.6217821
2.56	1.1072754	2.6299424
2.57	1.1078155	2.6380946
2.58	1.1083476	2.646239
2.59	1.1088717	2.6543756
2.6	1.1093879	2.6625045
2.61	1.1098961	2.670626
2.62	1.1103962	2.6787401
2.63	1.1108883	2.6868469
2.64	1.1113722	2.6949466
2.65	1.1118481	2.7030394
2.66	1.1123158	2.7111252
2.67	1.1127754	2.7192044
2.68	1.1132268	2.7272769
2.69	1.1136699	2.7353429
2.7	1.1141049	2.7434026
2.71	1.1145316	2.751456
2.72	1.11495	2.7595034
2.73	1.1153601	2.7675447
2.74	1.1157619	2.7755802
2.75	1.1161554	2.78361
2.76	1.1165405	2.7916342
2.77	1.1169173	2.7996529
2.78	1.1172856	2.8076663
2.79	1.1176456	2.8156744
2.8	1.1179971	2.8236775
2.81	1.1183402	2.8316755
2.82	1.1186748	2.8396688
2.83	1.119001	2.8476573
2.84	1.1193186	2.8556412
2.85	1.1196277	2.8636206
2.86	1.1199284	2.8715957
2.87	1.1202204	2.8795666
2.88	1.120504	2.8875334
2.89	1.1207789	2.8954962
2.9	1.1210453	2.9034552
2.91	1.1213031	2.9114104
2.92	1.1215523	2.9193621
2.93	1.1217929	2.9273103
2.94	1.1220248	2.9352551
2.95	1.1222481	2.9431967
2.96	1.1224628	2.9511352
2.97	1.1226688	2.9590708
2.98	1.1228661	2.9670035
2.99	1.1230547	2.9749334
3	1.1232347	2.9828608
3.01	1.123406	2.9907857
3.02	1.1235685	2.9987082
3.03	1.1237224	3.0066285
3.04	1.1238675	3.0145467
3.05	1.1240039	3.0224629
3.06	1.1241316	3.0303772
3.07	1.1242505	3.0382898
3.08	1.1243607	3.0462008
3.09	1.1244621	3.0541103
3.1	1.1245548	3.0620185
3.11	1.1246387	3.0699254
3.12	1.1247139	3.0778312
3.13	1.1247803	3.085736
3.14	1.1248379	3.0936399
3.15	1.1248868	3.101543
3.16	1.1249269	3.1094456
3.17	1.1249582	3.1173476
3.18	1.1249807	3.1252493
3.19	1.1249945	3.1331507
3.2	1.1249995	3.141052
3.21	1.1249956	3.1489532
3.22	1.1249831	3.1568546
3.23	1.1249617	3.1647562
3.24	1.1249316	3.1726582
3.25	1.1248927	3.1805607
3.26	1.124845	3.1884638
3.27	1.1247885	3.1963676
3.28	1.1247233	3.2042723
3.29	1.1246493	3.2121779
3.3	1.1245665	3.2200846
3.31	1.124475	3.2279926
3.32	1.1243747	3.2359019
3.33	1.1242657	3.2438127
3.34	1.1241479	3.2517251
3.35	1.1240214	3.2596392
3.36	1.1238862	3.2675552
3.37	1.1237422	3.2754731
3.38	1.1235895	3.2833931
3.39	1.1234281	3.2913153
3.4	1.123258	3.2992399
3.41	1.1230792	3.3071669
3.42	1.1228918	3.3150965
3.43	1.1226956	3.3230288
3.44	1.1224907	3.330964
3.45	1.1222772	3.3389021
3.46	1.1220551	3.3468433
3.47	1.1218243	3.3547877
3.48	1.1215849	3.3627354
3.49	1.1213368	3.3706866
3.5	1.1210802	3.3786413
3.51	1.120815	3.3865998
3.52	1.1205411	3.3945621
3.53	1.1202588	3.4025284
3.54	1.1199678	3.4104987
3.55	1.1196683	3.4184732
3.56	1.1193603	3.4264521
3.57	1.1190438	3.4344354
3.58	1.1187188	3.4424233
3.59	1.1183853	3.4504159
3.6	1.1180434	3.4584133
3.61	1.117693	3.4664157
3.62	1.1173342	3.4744231
3.63	1.1169669	3.4824358
3.64	1.1165913	3.4904538
3.65	1.1162073	3.4984772
3.66	1.1158149	3.5065062
3.67	1.1154142	3.514541
3.68	1.1150052	3.5225815
3.69	1.1145879	3.5306281
3.7	1.1141623	3.5386807
3.71	1.1137285	3.5467395
3.72	1.1132864	3.5548047
3.73	1.1128361	3.5628764
3.74	1.1123776	3.5709546
3.75	1.111911	3.5790395
3.76	1.1114362	3.5871314
3.77	1.1109533	3.5952301
3.78	1.1104623	3.603336
3.79	1.1099633	3.6114491
3.8	1.1094562	3.6195696
3.81	1.1089411	3.6276976
3.82	1.108418	3.6358331
3.83	1.1078869	3.6439764
3.84	1.1073479	3.6521276
3.85	1.106801	3.6602868
3.86	1.1062462	3.6684541
3.87	1.1056836	3.6766297
3.88	1.1051132	3.6848136
3.89	1.104535	3.6930061
3.9	1.103949	3.7012071
3.91	1.1033552	3.709417
3.92	1.1027538	3.7176358
3.93	1.1021448	3.7258635
3.94	1.1015281	3.7341005
3.95	1.1009038	3.7423467
3.96	1.1002719	3.7506023
3.97	1.0996325	3.7588675
3.98	1.0989856	3.7671424
3.99	1.0983313	3.775427
4	1.0976695	3.7837216
4.01	1.0970004	3.7920263
4.02	1.0963239	3.8003411
4.03	1.0956401	3.8086663
4.04	1.094949	3.8170019
4.05	1.0942507	3.8253482
4.06	1.0935452	3.8337051
4.07	1.0928326	3.8420729
4.08	1.0921128	3.8504516
4.09	1.091386	3.8588414
4.1	1.0906521	3.8672425
4.11	1.0899112	3.875655
4.12	1.0891634	3.8840789
4.13	1.0884087	3.8925145
4.14	1.0876472	3.9009619
4.15	1.0868788	3.9094211
4.16	1.0861037	3.9178923
4.17	1.0853218	3.9263758
4.18	1.0845333	3.9348714
4.19	1.0837381	3.9433796
4.2	1.0829364	3.9519002
4.21	1.0821281	3.9604335
4.22	1.0813134	3.9689797
4.23	1.0804922	3.9775387
4.24	1.0796647	3.9861109
4.25	1.0788308	3.9946962
4.26	1.0779906	4.0032949
4.27	1.0771442	4.0119071
4.28	1.0762916	4.0205328
4.29	1.0754329	4.0291723
4.3	1.0745682	4.0378256
4.31	1.0736974	4.0464929
4.32	1.0728207	4.0551743
4.33	1.0719381	4.06387
4.34	1.0710497	4.0725801
4.35	1.0701554	4.0813046
4.36	1.0692555	4.0900438
4.37	1.0683498	4.0987978
4.38	1.0674386	4.1075667
4.39	1.0665218	4.1163506
4.4	1.0655996	4.1251496
4.41	1.0646719	4.133964
4.42	1.0637389	4.1427938
4.43	1.0628005	4.1516391
4.44	1.061857	4.1605001
4.45	1.0609082	4.1693769
4.46	1.0599544	4.1782696
4.47	1.0589955	4.1871784
4.48	1.0580317	4.1961034
4.49	1.057063	4.2050447
4.5	1.0560894	4.2140024
4.51	1.0551111	4.2229767
4.52	1.0541281	4.2319677
4.53	1.0531404	4.2409756
4.54	1.0521482	4.2500004
4.55	1.0511516	4.2590422
4.56	1.0501505	4.2681013
4.57	1.0491451	4.2771777
4.58	1.0481354	4.2862715
4.59	1.0471216	4.2953829
4.6	1.0461036	4.304512
4.61	1.0450817	4.313659
4.62	1.0440558	4.3228238
4.63	1.043026	4.3320068
4.64	1.0419924	4.3412079
4.65	1.0409551	4.3504273
4.66	1.0399142	4.3596652
4.67	1.0388697	4.3689215
4.68	1.0378218	4.3781966
4.69	1.0367704	4.3874904
4.7	1.0357158	4.3968032
4.71	1.034658	4.4061349
4.72	1.033597	4.4154858
4.73	1.032533	4.4248559
4.74	1.031466	4.4342454
4.75	1.0303962	4.4436543
4.76	1.0293236	4.4530828
4.77	1.0282483	4.4625311
4.78	1.0271704	4.4719991
4.79	1.02609	4.4814871
4.8	1.0250072	4.490995
4.81	1.023922	4.5005231
4.82	1.0228347	4.5100715
4.83	1.0217452	4.5196402
4.84	1.0206536	4.5292293
4.85	1.0195601	4.538839
4.86	1.0184648	4.5484693
4.87	1.0173677	4.5581204
4.88	1.016269	4.5677923
4.89	1.0151687	4.5774852
4.9	1.014067	4.5871992
4.91	1.0129639	4.5969342
4.92	1.0118596	4.6066906
4.93	1.0107541	4.6164682
4.94	1.0096476	4.6262673
4.95	1.0085402	4.6360879
4.96	1.0074319	4.6459301
4.97	1.0063229	4.6557939
4.98	1.0052132	4.6656796
4.99	1.0041031	4.675587
5	1.0029926	4.6855165
5.01	1.0018817	4.6954679
5.02	1.0007707	4.7054415
5.03	0.99965958	4.7154372
5.04	0.99854851	4.7254551
5.05	0.99743758	4.7354954
5.06	0.99632691	4.745558
5.07	0.99521661	4.7556432
5.08	0.9941068	4.7657508
5.09	0.99299759	4.775881
5.1	0.99188909	4.7860339
5.11	0.99078143	4.7962095
5.12	0.98967471	4.8064078
5.13	0.98856906	4.816629
5.14	0.98746459	4.8268731
5.15	0.98636142	4.83714
5.16	0.98525967	4.84743
5.17	0.98415947	4.857743
5.18	0.98306093	4.868079
5.19	0.98196416	4.8784382
5.2	0.98086931	4.8888205
5.21	0.97977648	4.8992259
5.22	0.9786858	4.9096546
5.23	0.9775974	4.9201066
5.24	0.97651139	4.9305818
5.25	0.97542791	4.9410803
5.26	0.97434707	4.9516021
5.27	0.97326901	4.9621473
5.28	0.97219384	4.9727158
5.29	0.97112171	4.9833077
5.3	0.97005272	4.993923
5.31	0.96898702	5.0045617
5.32	0.96792472	5.0152237
5.33	0.96686596	5.0259092
5.34	0.96581087	5.036618
5.35	0.96475958	5.0473502
5.36	0.9637122	5.0581058
5.37	0.96266888	5.0688847
5.38	0.96162975	5.079687
5.39	0.96059493	5.0905126
5.4	0.95956456	5.1013615
5.41	0.95853876	5.1122337
5.42	0.95751767	5.1231291
5.43	0.95650142	5.1340477
5.44	0.95549014	5.1449895
5.45	0.95448397	5.1559544
5.46	0.95348302	5.1669424
5.47	0.95248745	5.1779534
5.48	0.95149737	5.1889875
5.49	0.95051292	5.2000444
5.5	0.94953424	5.2111242
5.51	0.94856145	5.2222268
5.52	0.94759468	5.2333521
5.53	0.94663408	5.2445
5.54	0.94567977	5.2556706
5.55	0.94473188	5.2668636
5.56	0.94379054	5.278079
5.57	0.94285589	5.2893168
5.58	0.94192806	5.3005767
5.59	0.94100718	5.3118588
5.6	0.94009337	5.3231629
5.61	0.93918678	5.334489
5.62	0.93828753	5.3458368
5.63	0.93739575	5.3572063
5.64	0.93651157	5.3685973
5.65	0.93563512	5.3800098
5.66	0.93476652	5.3914436
5.67	0.93390592	5.4028986
5.68	0.93305342	5.4143746
5.69	0.93220917	5.4258715
5.7	0.93137329	5.4373891
5.71	0.9305459	5.4489273
5.72	0.92972713	5.460486
5.73	0.92891711	5.4720649
5.74	0.92811595	5.4836639
5.75	0.92732379	5.4952828
5.76	0.92654074	5.5069215
5.77	0.92576692	5.5185798
5.78	0.92500246	5.5302574
5.79	0.92424748	5.5419543
5.8	0.92350209	5.5536701
5.81	0.92276641	5.5654048
5.82	0.92204057	5.5771581
5.83	0.92132466	5.5889297
5.84	0.92061882	5.6007195
5.85	0.91992316	5.6125273
5.86	0.91923777	5.6243529
5.87	0.91856279	5.6361959
5.88	0.91789831	5.6480562
5.89	0.91724445	5.6599336
5.9	0.91660131	5.6718278
5.91	0.91596901	5.6837385
5.92	0.91534763	5.6956656
5.93	0.9147373	5.7076087
5.94	0.9141381	5.7195676
5.95	0.91355015	5.7315421
5.96	0.91297353	5.7435318
5.97	0.91240835	5.7555366
5.98	0.9118547	5.767556
5.99	0.91131268	5.7795899
6	0.91078237	5.791638
6.01	0.91026388	5.8037
6.02	0.90975728	5.8157756
6.03	0.90926266	5.8278644
6.04	0.90878012	5.8399663
6.05	0.90830973	5.8520808
6.06	0.90785158	5.8642078
6.07	0.90740574	5.8763468
6.08	0.90697229	5.8884976
6.09	0.90655132	5.9006598
6.1	0.90614288	5.9128332
6.11	0.90574706	5.9250174
6.12	0.90536393	5.937212
6.13	0.90499355	5.9494169
6.14	0.90463598	5.9616315
6.15	0.9042913	5.9738556
6.16	0.90395956	5.9860889
6.17	0.90364082	5.998331
6.18	0.90333514	6.0105815
6.19	0.90304258	6.0228402
6.2	0.90276318	6.0351066
6.21	0.90249699	6.0473804
6.22	0.90224407	6.0596613
6.23	0.90200446	6.0719489
6.24	0.90177821	6.0842429
6.25	0.90156534	6.0965428
6.26	0.90136591	6.1088484
6.27	0.90117995	6.1211592
6.28	0.90100749	6.133475
6.29	0.90084857	6.1457952
6.3	0.90070321	6.1581196
6.31	0.90057143	6.1704479
6.32	0.90045327	6.1827795
6.33	0.90034875	6.1951142
6.34	0.90025787	6.2074515
6.35	0.90018067	6.2197912
6.36	0.90011715	6.2321328
6.37	0.90006733	6.2444759
6.38	0.90003122	6.2568203
6.39	0.90000881	6.2691654
6.4	0.90000012	6.281511
6.41	0.90000515	6.2938566
6.42	0.9000239	6.3062018
6.43	0.90005635	6.3185464
6.44	0.90010252	6.3308899
6.45	0.90016238	6.343232
6.46	0.90023593	6.3555722
6.47	0.90032316	6.3679102
6.48	0.90042404	6.3802456
6.49	0.90053857	6.3925781
6.5	0.90066671	6.4049073
6.51	0.90080845	6.4172328
6.52	0.90096376	6.4295542
6.53	0.90113261	6.4418711
6.54	0.90131497	6.4541833
6.55	0.90151081	6.4664903
6.56	0.90172009	6.4787918
6.57	0.90194278	6.4910874
6.58	0.90217883	6.5033767
6.59	0.9024282	6.5156594
6.6	0.90269085	6.5279352
6.61	0.90296673	6.5402036
6.62	0.90325579	6.5524644
6.63	0.90355797	6.5647171
6.64	0.90387323	6.5769615
6.65	0.90420151	6.5891972
6.66	0.90454274	6.6014238
6.67	0.90489688	6.613641
6.68	0.90526384	6.6258484
6.69	0.90564358	6.6380459
6.7	0.90603602	6.6502329
6.71	0.9064411	6.6624092
6.72	0.90685873	6.6745744
6.73	0.90728886	6.6867283
6.74	0.9077314	6.6988705
6.75	0.90818627	6.7110007
6.76	0.90865341	6.7231185
6.77	0.90913271	6.7352238
6.78	0.90962412	6.7473162
6.79	0.91012752	6.7593953
6.8	0.91064285	6.7714609
6.81	0.91117002	6.7835127
6.82	0.91170892	6.7955505
6.83	0.91225948	6.8075738
6.84	0.91282159	6.8195825
6.85	0.91339517	6.8315763
6.86	0.91398011	6.8435548
6.87	0.91457631	6.8555179
6.88	0.91518368	6.8674653
6.89	0.91580212	6.8793967
6.9	0.91643152	6.8913118
6.91	0.91707178	6.9032104
6.92	0.91772279	6.9150923
6.93	0.91838444	6.9269572
6.94	0.91905663	6.9388049
6.95	0.91973925	6.9506351
6.96	0.92043219	6.9624476
6.97	0.92113532	6.9742423
6.98	0.92184855	6.9860188
6.99	0.92257176	6.997777
7	0.92330482	7.0095166
7.01	0.92404763	7.0212375
7.02	0.92480007	7.0329395
7.03	0.92556201	7.0446223
7.04	0.92633334	7.0562857
7.05	0.92711394	7.0679297
7.06	0.92790368	7.0795539
7.07	0.92870245	7.0911582
7.08	0.92951012	7.1027425
7.09	0.93032657	7.1143066
7.1	0.93115167	7.1258503
7.11	0.9319853	7.1373734
7.12	0.93282733	7.1488759
7.13	0.93367763	7.1603574
7.14	0.93453609	7.171818
7.15	0.93540256	7.1832575
7.16	0.93627693	7.1946757
7.17	0.93715906	7.2060725
7.18	0.93804882	7.2174477
7.19	0.93894609	7.2288014
7.2	0.93985074	7.2401332
7.21	0.94076263	7.2514432
7.22	0.94168164	7.2627311
7.23	0.94260763	7.273997
7.24	0.94354047	7.2852407
7.25	0.94448004	7.2964621
7.26	0.94542619	7.3076611
7.27	0.9463788	7.3188377
7.28	0.94733774	7.3299917
7.29	0.94830288	7.341123
7.3	0.94927407	7.3522317
7.31	0.95025119	7.3633176
7.32	0.95123412	7.3743806
7.33	0.95222271	7.3854207
7.34	0.95321683	7.3964379
7.35	0.95421635	7.407432
7.36	0.95522114	7.4184031
7.37	0.95623107	7.4293511
7.38	0.95724601	7.4402759
7.39	0.95826582	7.4511775
7.4	0.95929037	7.4620559
7.41	0.96031954	7.472911
7.42	0.96135318	7.4837428
7.43	0.96239118	7.4945513
7.44	0.96343339	7.5053365
7.45	0.9644797	7.5160983
7.46	0.96552996	7.5268368
7.47	0.96658405	7.5375518
7.48	0.96764185	7.5482435
7.49	0.96870321	7.5589118
7.5	0.96976802	7.5695567
7.51	0.97083614	7.5801782
7.52	0.97190745	7.5907763
7.53	0.97298181	7.6013511
7.54	0.97405912	7.6119025
7.55	0.97513923	7.6224306
7.56	0.97622202	7.6329353
7.57	0.97730736	7.6434167
7.58	0.97839514	7.6538749
7.59	0.97948522	7.6643098
7.6	0.98057749	7.6747215
7.61	0.98167181	7.6851099
7.62	0.98276808	7.6954753
7.63	0.98386616	7.7058175
7.64	0.98496593	7.7161366
7.65	0.98606728	7.7264327
7.66	0.98717008	7.7367058
7.67	0.98827421	7.746956
7.68	0.98937956	7.7571832
7.69	0.99048601	7.7673877
7.7	0.99159343	7.7775693
7.71	0.99270172	7.7877282
7.72	0.99381075	7.7978645
7.73	0.99492041	7.8079782
7.74	0.99603059	7.8180693
7.75	0.99714117	7.8281379
7.76	0.99825204	7.8381842
7.77	0.99936309	7.8482081
7.78	1.0004742	7.8582097
7.79	1.0015853	7.8681891
7.8	1.0026962	7.8781465
7.81	1.0038068	7.8880818
7.82	1.0049171	7.8979951
7.83	1.0060268	7.9078866
7.84	1.007136	7.9177562
7.85	1.0082445	7.9276042
7.86	1.0093522	7.9374305
7.87	1.0104589	7.9472353
7.88	1.0115647	7.9570187
7.89	1.0126693	7.9667807
