#t	zeta	theta
0	0.9	0
0.01	0.900007	0.0123456
0.02	0.900027	0.0246908
0.03	0.900062	0.0370353
0.04	0.90011	0.0493786
0.05	0.900171	0.0617204
0.06	0.900247	0.0740604
0.07	0.900336	0.086398
0.08	0.900438	0.0987331
0.09	0.900555	0.111065
0.1	0.900685	0.123394
0.11	0.900828	0.135719
0.12	0.900985	0.14804
0.13	0.901156	0.160356
0.14	0.90134	0.172668
0.15	0.901538	0.184974
0.16	0.901749	0.197275
0.17	0.901973	0.209569
0.18	0.902211	0.221858
0.19	0.902462	0.23414
0.2	0.902727	0.246414
0.21	0.903005	0.258682
0.22	0.903295	0.270942
0.23	0.903599	0.283193
0.24	0.903916	0.295436
0.25	0.904246	0.307671
0.26	0.904589	0.319896
0.27	0.904945	0.332112
0.28	0.905314	0.344318
0.29	0.905695	0.356514
0.3	0.906089	0.3687
0.31	0.906496	0.380875
0.32	0.906915	0.393038
0.33	0.907347	0.405191
0.34	0.907791	0.417331
0.35	0.908248	0.42946
0.36	0.908717	0.441576
0.37	0.909198	0.45368
0.38	0.909691	0.46577
0.39	0.910196	0.477848
0.4	0.910712	0.489911
0.41	0.911241	0.501961
0.42	0.911782	0.513997
0.43	0.912334	0.526019
0.44	0.912897	0.538025
0.45	0.913473	0.550017
0.46	0.914059	0.561994
0.47	0.914657	0.573955
0.48	0.915266	0.5859
0.49	0.915885	0.597829
0.5	0.916516	0.609742
0.51	0.917158	0.621638
0.52	0.91781	0.633518
0.53	0.918473	0.645381
0.54	0.919147	0.657226
0.55	0.919831	0.669054
0.56	0.920525	0.680864
0.57	0.92123	0.692656
0.58	0.921944	0.70443
0.59	0.922669	0.716186
0.6	0.923403	0.727923
0.61	0.924147	0.739642
0.62	0.924901	0.751341
0.63	0.925664	0.763021
0.64	0.926437	0.774682
0.65	0.927219	0.786323
0.66	0.92801	0.797945
0.67	0.92881	0.809547
0.68	0.929618	0.821128
0.69	0.930436	0.83269
0.7	0.931262	0.844231
0.71	0.932097	0.855751
0.72	0.93294	0.867251
0.73	0.933792	0.878729
0.74	0.934651	0.890187
0.75	0.935519	0.901624
0.76	0.936394	0.913039
0.77	0.937277	0.924433
0.78	0.938168	0.935805
0.79	0.939066	0.947156
0.8	0.939972	0.958485
0.81	0.940885	0.969792
0.82	0.941805	0.981077
0.83	0.942732	0.99234
0.839999	0.943665	1.00358
0.849999	0.944606	1.0148
0.859999	0.945553	1.026
0.869999	0.946506	1.03717
0.879999	0.947466	1.04832
0.889999	0.948432	1.05945
0.899999	0.949404	1.07055
0.909999	0.950382	1.08164
0.919999	0.951366	1.0927
0.929999	0.952355	1.10373
0.939999	0.95335	1.11475
0.949999	0.95435	1.12574
0.959999	0.955356	1.13671
0.969999	0.956366	1.14765
0.979999	0.957382	1.15857
0.989999	0.958402	1.16947
0.999999	0.959427	1.18035
1.01	0.960457	1.1912
1.02	0.961491	1.20203
1.03	0.96253	1.21283
1.04	0.963573	1.22362
1.05	0.96462	1.23437
1.06	0.96567	1.24511
1.07	0.966725	1.25582
1.08	0.967783	1.26651
1.09	0.968845	1.27717
1.1	0.96991	1.28782
1.11	0.970979	1.29843
1.12	0.972051	1.30903
1.13	0.973125	1.3196
1.14	0.974203	1.33015
1.15	0.975284	1.34067
1.16	0.976367	1.35118
1.17	0.977452	1.36165
1.18	0.97854	1.37211
1.19	0.979631	1.38254
1.2	0.980723	1.39295
1.21	0.981818	1.40334
1.22	0.982914	1.4137
1.23	0.984013	1.42404
1.24	0.985113	1.43435
1.25	0.986214	1.44465
1.26	0.987317	1.45492
1.27	0.988421	1.46516
1.28	0.989527	1.47539
1.29	0.990634	1.48559
1.3	0.991741	1.49577
1.31	0.992849	1.50592
1.32	0.993959	1.51606
1.33	0.995068	1.52617
1.34	0.996179	1.53625
1.35	0.997289	1.54632
1.36	0.9984	1.55636
1.37	0.999511	1.56638
1.38	1.00062	1.57638
1.39	1.00173	1.58636
1.4	1.00284	1.59631
1.41	1.00395	1.60625
1.42	1.00506	1.61616
1.43	1.00617	1.62605
1.44	1.00728	1.63591
1.45	1.00839	1.64576
1.46	1.0095	1.65558
1.47	1.01061	1.66538
1.48	1.01171	1.67516
1.49	1.01282	1.68492
1.5	1.01392	1.69466
1.51	1.01502	1.70438
1.52	1.01612	1.71407
1.53	1.01722	1.72375
1.54	1.01832	1.7334
1.55	1.01941	1.74303
1.56	1.02051	1.75265
1.57	1.0216	1.76224
1.58	1.02269	1.77181
1.59	1.02378	1.78136
1.6	1.02486	1.79089
1.61	1.02595	1.8004
1.62	1.02703	1.80989
1.63	1.0281	1.81936
1.64	1.02918	1.82881
1.65	1.03025	1.83825
1.66	1.03132	1.84766
1.67	1.03239	1.85705
1.68	1.03345	1.86642
1.69	1.03452	1.87578
1.7	1.03557	1.88511
1.71	1.03663	1.89442
1.72	1.03768	1.90372
1.73	1.03873	1.913
1.74	1.03977	1.92226
1.75	1.04082	1.9315
1.76	1.04185	1.94072
1.77	1.04289	1.94992
1.78	1.04392	1.95911
1.79	1.04494	1.96828
1.8	1.04597	1.97743
1.81	1.04699	1.98656
1.82	1.048	1.99567
1.83	1.04901	2.00477
1.84	1.05002	2.01385
1.85	1.05102	2.02291
1.86	1.05202	2.03195
1.87	1.05301	2.04098
1.88	1.054	2.04999
1.89	1.05498	2.05898
1.9	1.05596	2.06796
1.91	1.05693	2.07692
1.92	1.0579	2.08586
1.93	1.05887	2.09479
1.94	1.05983	2.1037
1.95	1.06078	2.11259
1.96	1.06173	2.12147
1.97	1.06267	2.13034
1.98	1.06361	2.13918
1.99	1.06455	2.14802
2	1.06548	2.15683
2.01	1.0664	2.16563
2.02	1.06732	2.17442
2.03	1.06823	2.18319
2.04	1.06913	2.19195
2.05	1.07003	2.20069
2.06	1.07093	2.20941
2.07	1.07182	2.21813
2.08	1.0727	2.22682
2.09	1.07358	2.23551
2.1	1.07445	2.24418
2.11	1.07532	2.25283
2.12	1.07618	2.26147
2.13	1.07703	2.2701
2.14	1.07788	2.27871
2.15	1.07872	2.28731
2.16	1.07955	2.2959
2.17	1.08038	2.30448
2.18	1.0812	2.31304
2.19	1.08202	2.32158
2.2	1.08283	2.33012
2.21	1.08363	2.33864
2.22	1.08443	2.34715
2.23	1.08522	2.35565
2.24	1.086	2.36413
2.25	1.08677	2.37261
2.26	1.08754	2.38107
2.27	1.08831	2.38952
2.28	1.08906	2.39795
2.29	1.08981	2.40638
2.3	1.09055	2.41479
2.31	1.09129	2.4232
2.32	1.09201	2.43159
2.33	1.09274	2.43997
2.34	1.09345	2.44834
2.35	1.09416	2.45669
2.36	1.09485	2.46504
2.37	1.09555	2.47338
2.38	1.09623	2.48171
2.39	1.09691	2.49002
2.4	1.09758	2.49833
2.41	1.09824	2.50662
2.42	1.0989	2.51491
2.43	1.09954	2.52319
2.44	1.10019	2.53145
2.45	1.10082	2.53971
2.46	1.10144	2.54796
2.47	1.10206	2.5562
2.48	1.10267	2.56442
2.49	1.10327	2.57264
2.5	1.10387	2.58086
2.51	1.10446	2.58906
2.52	1.10503	2.59725
2.53	1.10561	2.60544
2.54	1.10617	2.61361
2.55	1.10673	2.62178
2.56	1.10727	2.62994
2.57	1.10781	2.63809
2.58	1.10835	2.64624
2.59	1.10887	2.65438
2.6	1.10939	2.6625
2.61	1.10989	2.67063
2.62	1.11039	2.67874
2.63	1.11089	2.68685
2.64	1.11137	2.69495
2.65	1.11185	2.70304
2.66	1.11231	2.71113
2.67	1.11277	2.7192
2.68	1.11322	2.72728
2.69	1.11367	2.73534
2.7	1.1141	2.7434
2.71	1.11453	2.75146
2.72	1.11495	2.7595
2.73	1.11536	2.76754
2.74	1.11576	2.77558
2.75	1.11615	2.78361
2.76	1.11654	2.79163
2.77	1.11692	2.79965
2.78	1.11728	2.80767
2.79	1.11764	2.81567
2.8	1.118	2.82368
2.81	1.11834	2.83168
2.82	1.11867	2.83967
2.83	1.119	2.84766
2.84	1.11932	2.85564
2.85	1.11963	2.86362
2.86	1.11993	2.8716
2.87	1.12022	2.87957
2.88	1.1205	2.88753
2.89	1.12078	2.8955
2.9	1.12104	2.90346
2.91	1.1213	2.91141
2.92	1.12155	2.91936
2.93	1.12179	2.92731
2.94	1.12202	2.93526
2.95	1.12225	2.9432
2.96	1.12246	2.95114
2.97	1.12267	2.95907
2.98	1.12286	2.967
2.99	1.12305	2.97493
3	1.12323	2.98286
3.01	1.1234	2.99079
3.02	1.12357	2.99871
3.03	1.12372	3.00663
3.04	1.12386	3.01455
3.05	1.124	3.02246
3.06	1.12413	3.03038
3.07	1.12425	3.03829
3.08	1.12436	3.0462
3.09	1.12446	3.05411
3.1	1.12455	3.06202
3.11	1.12464	3.06993
3.12	1.12471	3.07783
3.13	1.12478	3.08574
3.14	1.12484	3.09364
3.15	1.12488	3.10154
3.16	1.12492	3.10945
3.17	1.12496	3.11735
3.18	1.12498	3.12525
3.19	1.12499	3.13315
3.2	1.125	3.14105
3.21	1.12499	3.14895
3.22	1.12498	3.15685
3.23	1.12496	3.16476
3.24	1.12493	3.17266
3.25	1.12489	3.18056
3.26	1.12484	3.18846
3.27	1.12479	3.19637
3.28	1.12472	3.20427
3.29	1.12465	3.21218
3.3	1.12456	3.22008
3.31	1.12447	3.22799
3.32	1.12437	3.2359
3.33	1.12426	3.24381
3.34	1.12415	3.25173
3.35	1.12402	3.25964
3.36	1.12388	3.26756
3.37	1.12374	3.27547
3.38	1.12359	3.28339
3.39	1.12343	3.29132
3.4	1.12326	3.29924
3.41	1.12308	3.30717
3.42	1.12289	3.3151
3.43	1.12269	3.32303
3.44	1.12249	3.33096
3.45	1.12227	3.3389
3.46	1.12205	3.34684
3.47	1.12182	3.35479
3.48	1.12158	3.36274
3.49	1.12133	3.37069
3.5	1.12108	3.37864
3.51	1.12081	3.3866
3.52	1.12054	3.39456
3.53	1.12026	3.40253
3.54	1.11996	3.4105
3.55	1.11967	3.41847
3.56	1.11936	3.42645
3.57	1.11904	3.43444
3.58	1.11872	3.44242
3.59	1.11838	3.45042
3.6	1.11804	3.45841
3.61	1.11769	3.46642
3.62	1.11733	3.47442
3.63	1.11696	3.48244
3.64	1.11659	3.49045
3.65	1.1162	3.49848
3.66	1.11581	3.50651
3.67	1.11541	3.51454
3.68	1.115	3.52258
3.69	1.11459	3.53063
3.7	1.11416	3.53868
3.71	1.11373	3.54674
3.72	1.11328	3.55481
3.73	1.11283	3.56288
3.74	1.11237	3.57096
3.75	1.11191	3.57904
3.76	1.11143	3.58713
3.77	1.11095	3.59523
3.78	1.11046	3.60334
3.79	1.10996	3.61145
3.8	1.10945	3.61957
3.81	1.10894	3.6277
3.82	1.10842	3.63583
3.83	1.10788	3.64398
3.84	1.10735	3.65213
3.85	1.1068	3.66029
3.86	1.10624	3.66846
3.87	1.10568	3.67663
3.88	1.10511	3.68482
3.89	1.10453	3.69301
3.9	1.10395	3.70121
3.91	1.10335	3.70942
3.92	1.10275	3.71764
3.93	1.10214	3.72587
3.94	1.10153	3.7341
3.95	1.1009	3.74235
3.96	1.10027	3.7506
3.97	1.09963	3.75887
3.98	1.09898	3.76714
3.99	1.09833	3.77543
4	1.09767	3.78372
4.01	1.097	3.79203
4.02	1.09632	3.80034
4.03	1.09564	3.80867
4.04	1.09495	3.817
4.05	1.09425	3.82535
4.06	1.09354	3.83371
4.07	1.09283	3.84208
4.08	1.09211	3.85046
4.09	1.09138	3.85885
4.1	1.09065	3.86725
4.11	1.08991	3.87566
4.12	1.08916	3.88408
4.13	1.08841	3.89252
4.14	1.08765	3.90097
4.15	1.08688	3.90943
4.16	1.0861	3.9179
4.17	1.08532	3.92638
4.18	1.08453	3.93488
4.19	1.08374	3.94339
4.2	1.08293	3.95191
4.21	1.08213	3.96044
4.22	1.08131	3.96899
4.23	1.08049	3.97755
4.24	1.07966	3.98612
4.25	1.07883	3.9947
4.26	1.07799	4.0033
4.27	1.07714	4.01192
4.28	1.07629	4.02054
4.29	1.07543	4.02918
4.3	1.07457	4.03783
4.31	1.0737	4.0465
4.32	1.07282	4.05518
4.33	1.07194	4.06388
4.34	1.07105	4.07259
4.35	1.07015	4.08132
4.36	1.06925	4.09005
4.37001	1.06835	4.09881
4.38001	1.06744	4.10758
4.39001	1.06652	4.11636
4.40001	1.0656	4.12516
4.41001	1.06467	4.13398
4.42001	1.06374	4.14281
4.43001	1.0628	4.15165
4.44001	1.06186	4.16051
4.45001	1.06091	4.16939
4.46001	1.05995	4.17828
4.47001	1.05899	4.18719
4.48001	1.05803	4.19612
4.49001	1.05706	4.20506
4.50001	1.05609	4.21402
4.51001	1.05511	4.22299
4.52001	1.05413	4.23198
4.53001	1.05314	4.24099
4.54001	1.05215	4.25002
4.55001	1.05115	4.25906
4.56001	1.05015	4.26812
4.57001	1.04914	4.27719
4.58001	1.04813	4.28629
4.59001	1.04712	4.2954
4.60001	1.0461	4.30453
4.61001	1.04508	4.31368
4.62001	1.04405	4.32284
4.63001	1.04302	4.33203
4.64001	1.04199	4.34123
4.65001	1.04095	4.35045
4.66001	1.03991	4.35968
4.67001	1.03887	4.36894
4.68001	1.03782	4.37822
4.69001	1.03677	4.38751
4.70001	1.03571	4.39682
4.71001	1.03466	4.40616
4.72001	1.0336	4.41551
4.73001	1.03253	4.42488
4.74001	1.03146	4.43427
4.75001	1.03039	4.44368
4.76001	1.02932	4.45311
4.77001	1.02825	4.46255
4.78001	1.02717	4.47202
4.79001	1.02609	4.48151
4.80001	1.02501	4.49102
4.81002	1.02392	4.50055
4.82002	1.02283	4.5101
4.83002	1.02174	4.51966
4.84002	1.02065	4.52925
4.85002	1.01956	4.53886
4.86002	1.01846	4.54849
4.87002	1.01737	4.55815
4.88002	1.01627	4.56782
4.89002	1.01517	4.57751
4.90002	1.01407	4.58722
4.91002	1.01296	4.59696
4.92002	1.01186	4.60672
4.93002	1.01075	4.61649
4.94002	1.00965	4.62629
4.95002	1.00854	4.63611
4.96002	1.00743	4.64596
4.97002	1.00632	4.65582
4.98002	1.00521	4.66571
4.99002	1.0041	4.67561
5.00002	1.00299	4.68554
5.01002	1.00188	4.6955
5.02002	1.00077	4.70547
5.03002	0.999659	4.71547
5.04002	0.998548	4.72548
5.05002	0.997437	4.73552
5.06002	0.996326	4.74559
5.07002	0.995216	4.75567
5.08002	0.994106	4.76578
5.09002	0.992997	4.77591
5.10002	0.991889	4.78606
5.11002	0.990781	4.79624
5.12002	0.989675	4.80644
5.13002	0.988569	4.81666
5.14002	0.987464	4.8269
5.15002	0.986361	4.83717
5.16002	0.98526	4.84746
5.17002	0.98416	4.85778
5.18002	0.983061	4.86811
5.19002	0.981964	4.87847
5.20002	0.98087	4.88885
5.21002	0.979777	4.89926
5.22002	0.978686	4.90969
5.23002	0.977598	4.92014
5.24003	0.976512	4.93062
5.25003	0.975428	4.94111
5.26003	0.974348	4.95164
5.27003	0.97327	4.96218
5.28003	0.972194	4.97275
5.29003	0.971122	4.98334
5.30003	0.970053	4.99396
5.31003	0.968988	5.0046
5.32003	0.967926	5.01526
5.33003	0.966867	5.02594
5.34003	0.965812	5.03665
5.35003	0.964761	5.04739
5.36003	0.963713	5.05814
5.37003	0.96267	5.06892
5.38003	0.961631	5.07972
5.39003	0.960596	5.09055
5.40003	0.959566	5.1014
5.41003	0.95854	5.11227
5.42003	0.957519	5.12317
5.43003	0.956503	5.13408
5.44003	0.955492	5.14503
5.45003	0.954485	5.15599
5.46003	0.953485	5.16698
5.47003	0.952489	5.17799
5.48003	0.951499	5.18903
5.49003	0.950515	5.20008
5.50003	0.949536	5.21116
5.51003	0.948563	5.22227
5.52003	0.947597	5.23339
5.53003	0.946636	5.24454
5.54003	0.945682	5.25571
5.55003	0.944734	5.2669
5.56003	0.943793	5.27812
5.57003	0.942858	5.28936
5.58003	0.94193	5.30062
5.59003	0.941009	5.3119
5.60003	0.940096	5.3232
5.61003	0.939189	5.33453
5.62003	0.93829	5.34588
5.63003	0.937398	5.35725
5.64003	0.936514	5.36864
5.65003	0.935638	5.38005
5.66003	0.934769	5.39149
5.67003	0.933909	5.40294
5.68004	0.933056	5.41442
5.69004	0.932212	5.42591
5.70004	0.931376	5.43743
5.71004	0.930549	5.44897
5.72004	0.92973	5.46053
5.73004	0.92892	5.47211
5.74004	0.928119	5.48371
5.75004	0.927327	5.49533
5.76004	0.926544	5.50697
5.77004	0.92577	5.51862
5.78004	0.925006	5.5303
5.79004	0.924251	5.542
5.80004	0.923505	5.55371
5.81004	0.92277	5.56545
5.82004	0.922044	5.5772
5.83004	0.921328	5.58897
5.84004	0.920622	5.60076
5.85004	0.919927	5.61257
5.86004	0.919241	5.6244
5.87004	0.918566	5.63624
5.88004	0.917902	5.6481
5.89004	0.917248	5.65998
5.90004	0.916605	5.67187
5.91004	0.915973	5.68378
5.92004	0.915351	5.69571
5.93004	0.914741	5.70765
5.94004	0.914142	5.71961
5.95004	0.913554	5.73159
5.96004	0.912977	5.74358
5.97004	0.912412	5.75558
5.98004	0.911859	5.7676
5.99004	0.911317	5.77964
6.00004	0.910786	5.79169
6.01004	0.910268	5.80375
6.02004	0.909761	5.81582
6.03004	0.909267	5.82791
6.04004	0.908784	5.84001
6.05004	0.908314	5.85213
6.06004	0.907856	5.86426
6.07004	0.90741	5.8764
6.08004	0.906977	5.88855
6.09004	0.906556	5.90071
6.10004	0.906147	5.91288
6.11004	0.905752	5.92507
6.12005	0.905368	5.93726
6.13005	0.904998	5.94947
6.14005	0.904641	5.96168
6.15005	0.904296	5.97391
6.16005	0.903964	5.98614
6.17005	0.903646	5.99838
6.18005	0.90334	6.01063
6.19005	0.903047	6.02289
6.20005	0.902768	6.03516
6.21005	0.902502	6.04743
6.22005	0.902249	6.05971
6.23005	0.902009	6.072
6.24005	0.901783	6.08429
6.25005	0.90157	6.09659
6.26005	0.901371	6.1089
6.27005	0.901185	6.12121
6.28005	0.901013	6.13353
6.29005	0.900854	6.14585
6.30005	0.900708	6.15817
6.31005	0.900577	6.1705
6.32005	0.900458	6.18283
6.33005	0.900354	6.19517
6.34005	0.900263	6.2075
6.35005	0.900186	6.21984
6.36005	0.900122	6.23218
6.37005	0.900073	6.24453
6.38005	0.900037	6.25687
6.39005	0.900014	6.26922
6.40005	0.900006	6.28156
6.41005	0.900011	6.29391
6.42005	0.900029	6.30625
6.43005	0.900062	6.3186
6.44005	0.900108	6.33094
6.45005	0.900168	6.34329
6.46005	0.900242	6.35563
6.47005	0.900329	6.36796
6.48005	0.90043	6.3803
6.49005	0.900544	6.39263
6.50005	0.900672	6.40496
6.51005	0.900814	6.41729
6.52005	0.90097	6.42961
6.53005	0.901138	6.44193
6.54005	0.901321	6.45424
6.55006	0.901517	6.46655
6.56006	0.901726	6.47885
6.57006	0.901949	6.49114
6.58006	0.902185	6.50343
6.59006	0.902434	6.51571
6.60006	0.902697	6.52799
6.61006	0.902973	6.54026
6.62006	0.903262	6.55252
6.63006	0.903564	6.56477
6.64006	0.903879	6.57702
6.65006	0.904208	6.58925
6.66006	0.904549	6.60148
6.67006	0.904903	6.6137
6.68006	0.90527	6.6259
6.69006	0.90565	6.6381
6.70006	0.906042	6.65029
6.71006	0.906447	6.66247
6.72006	0.906865	6.67463
6.73006	0.907295	6.68679
6.74006	0.907738	6.69893
6.75006	0.908192	6.71106
6.76006	0.90866	6.72318
6.77006	0.909139	6.73528
6.78006	0.90963	6.74737
6.79006	0.910134	6.75945
6.80006	0.910649	6.77152
6.81006	0.911176	6.78357
6.82006	0.911715	6.79561
6.83006	0.912266	6.80763
6.84006	0.912828	6.81964
6.85006	0.913401	6.83163
6.86006	0.913986	6.84361
6.87006	0.914583	6.85558
6.88006	0.91519	6.86752
6.89006	0.915808	6.87946
6.90006	0.916438	6.89137
6.91006	0.917078	6.90327
6.92006	0.917729	6.91515
6.93006	0.918391	6.92702
6.94006	0.919063	6.93886
6.95006	0.919746	6.95069
6.96006	0.920439	6.96251
6.97006	0.921142	6.9743
6.98006	0.921855	6.98608
6.99007	0.922578	6.99784
7.00007	0.923311	7.00958
7.01007	0.924054	7.0213
7.02007	0.924806	7.033
7.03007	0.925568	7.04468
7.04007	0.92634	7.05635
7.05007	0.92712	7.06799
7.06007	0.92791	7.07961
7.07007	0.928709	7.09122
7.08007	0.929516	7.1028
7.09007	0.930333	7.11437
7.10007	0.931158	7.12591
7.11007	0.931992	7.13743
7.12007	0.932834	7.14894
7.13007	0.933684	7.16042
7.14007	0.934542	7.17188
7.15007	0.935409	7.18332
7.16007	0.936283	7.19474
7.17007	0.937165	7.20613
7.18007	0.938055	7.21751
7.19007	0.938952	7.22886
7.20007	0.939857	7.2402
7.21007	0.940769	7.25151
7.22007	0.941688	7.26279
7.23007	0.942614	7.27406
7.24007	0.943547	7.2853
7.25007	0.944486	7.29652
7.26007	0.945432	7.30772
7.27007	0.946385	7.3189
7.28007	0.947344	7.33005
7.29007	0.948309	7.34119
7.30007	0.94928	7.35229
7.31007	0.950257	7.36338
7.32007	0.95124	7.37444
7.33007	0.952229	7.38548
7.34007	0.953223	7.3965
7.35007	0.954222	7.4075
7.36007	0.955227	7.41847
7.37007	0.956237	7.42941
7.38007	0.957252	7.44034
7.39007	0.958272	7.45124
7.40007	0.959296	7.46212
7.41007	0.960325	7.47298
7.42007	0.961359	7.48381
7.43008	0.962397	7.49462
7.44008	0.963439	7.5054
7.45008	0.964485	7.51616
7.46008	0.965536	7.5269
7.47008	0.96659	7.53762
7.48008	0.967647	7.54831
7.49008	0.968709	7.55898
7.50008	0.969774	7.56962
7.51008	0.970842	7.58024
7.52008	0.971913	7.59084
7.53008	0.972987	7.60142
7.54008	0.974065	7.61197
7.55008	0.975145	7.62249
7.56008	0.976227	7.633
7.57008	0.977313	7.64348
7.58008	0.9784	7.65394
7.59008	0.979491	7.66437
7.60008	0.980583	7.67479
7.61008	0.981677	7.68517
7.62008	0.982773	7.69554
7.63008	0.983871	7.70588
7.64008	0.984971	7.7162
7.65008	0.986072	7.7265
7.66008	0.987175	7.73677
7.67008	0.988279	7.74702
7.68008	0.989385	7.75725
7.69008	0.990491	7.76745
7.70008	0.991598	7.77764
7.71008	0.992707	7.78779
7.72008	0.993816	7.79793
7.73008	0.994925	7.80804
7.74008	0.996036	7.81814
7.75008	0.997146	7.8282
7.76008	0.998257	7.83825
7.77008	0.999368	7.84828
7.78008	1.00048	7.85828
7.79008	1.00159	7.86826
7.80008	1.0027	7.87821
7.81008	1.00381	7.88815
7.82008	1.00492	7.89806
7.83008	1.00603	7.90795
7.84008	1.00714	7.91782
7.85008	1.00825	7.92767
7.86009	1.00936	7.9375
7.87009	1.01046	7.9473
7.88009	1.01157	7.95709
7.89009	1.01267	7.96685
7.90009	1.01378	7.97659
7.91009	1.01488	7.98631
7.92009	1.01598	7.99601
7.93009	1.01708	8.00569
7.94009	1.01818	8.01534
7.95009	1.01927	8.02498
7.96009	1.02037	8.03459
7.97009	1.02146	8.04419
7.98009	1.02255	8.05376
7.99009	1.02364	8.06332
8.00009	1.02472	8.07285
8.01009	1.02581	8.08236
8.02009	1.02689	8.09186
8.03009	1.02797	8.10133
8.04009	1.02904	8.11078
8.05009	1.03011	8.12022
8.06009	1.03118	8.12963
8.07009	1.03225	8.13903
8.08009	1.03332	8.1484
8.09009	1.03438	8.15776
8.10009	1.03544	8.1671
8.11009	1.03649	8.17642
8.12009	1.03755	8.18571
8.13009	1.03859	8.19499
8.14009	1.03964	8.20426
8.15009	1.04068	8.2135
8.16009	1.04172	8.22272
8.17009	1.04275	8.23193
8.18009	1.04378	8.24112
8.19009	1.04481	8.25029
8.20009	1.04583	8.25944
8.21009	1.04685	8.26857
8.22009	1.04787	8.27769
8.23009	1.04888	8.28679
8.24009	1.04989	8.29587
8.25009	1.05089	8.30493
8.26009	1.05189	8.31398
8.27009	1.05288	8.32301
8.28009	1.05387	8.33202
8.29009	1.05485	8.34102
8.30009	1.05583	8.35
8.31009	1.05681	8.35896
8.3201	1.05778	8.3679
8.3301	1.05874	8.37683
8.3401	1.0597	8.38575
8.3501	1.06066	8.39464
8.3601	1.06161	8.40352
8.3701	1.06255	8.41239
8.3801	1.06349	8.42124
8.3901	1.06443	8.43007
8.4001	1.06536	8.43889
8.4101	1.06628	8.4477
8.4201	1.0672	8.45648
8.4301	1.06811	8.46526
8.4401	1.06902	8.47402
8.4501	1.06992	8.48276
8.4601	1.07081	8.49149
8.4701	1.0717	8.5002
8.4801	1.07259	8.5089
8.4901	1.07347	8.51759
8.5001	1.07434	8.52626
8.5101	1.0752	8.53491
8.5201	1.07606	8.54356
8.5301	1.07692	8.55219
8.5401	1.07777	8.5608
8.5501	1.07861	8.5694
8.5601	1.07944	8.57799
8.5701	1.08027	8.58657
8.5801	1.0811	8.59513
8.5901	1.08191	8.60368
8.6001	1.08272	8.61222
8.6101	1.08353	8.62074
8.6201	1.08432	8.62925
8.6301	1.08511	8.63775
8.6401	1.0859	8.64624
8.6501	1.08667	8.65471
8.6601	1.08744	8.66318
8.6701	1.08821	8.67163
8.6801	1.08896	8.68007
8.6901	1.08971	8.68849
8.7001	1.09046	8.69691
8.7101	1.09119	8.70531
8.7201	1.09192	8.71371
8.7301	1.09264	8.72209
8.7401	1.09336	8.73046
8.7501	1.09406	8.73882
