#t	zeta	theta
0	0.9	0
0.001	0.90000006858711	0.0012345678071508
0.002	0.9000002743483	0.0024691352379666
0.003	0.9000006172832	0.0037037019161137
0.004	0.90000109739118	0.0049382674652609
0.005	0.90000171467137	0.0061728315090803
0.006	0.90000246912263	0.0074073936712491
0.007	0.90000336074359	0.0086419535754504
0.008	0.90000438953261	0.0098765108453746
0.009	0.90000555548782	0.01111106510472
0.01	0.90000685860707	0.012345615977196
0.011	0.90000829888799	0.013580163086522
0.012	0.90000987632795	0.014814706056428
0.013	0.90001159092405	0.016049244510659
0.014	0.90001344267317	0.017283778072974
0.015	0.90001543157191	0.018518306367148
0.016	0.90001755761664	0.019752829016973
0.017	0.90001982080347	0.020987345646257
0.018	0.90002222112827	0.022221855878831
0.019	0.90002475858663	0.023456359338542
0.02	0.90002743317393	0.024690855649263
0.021	0.90003024488526	0.025925344434886
0.022	0.9000331937155	0.027159825319331
0.023	0.90003627965924	0.028394297926539
0.024	0.90003950271084	0.029628761880482
0.025	0.90004286286442	0.030863216805156
0.026	0.90004636011382	0.032097662324587
0.027	0.90004999445265	0.033332098062832
0.028	0.90005376587427	0.034566523643979
0.029	0.90005767437177	0.035800938692148
0.03	0.90006171993803	0.037035342831492
0.031	0.90006590256562	0.038269735686201
0.032	0.90007022224692	0.039504116880498
0.033	0.90007467897403	0.040738486038648
0.034	0.90007927273878	0.041972842784949
0.035	0.9000840035328	0.043207186743742
0.036	0.90008887134742	0.044441517539409
0.037	0.90009387617376	0.045675834796372
0.038	0.90009901800265	0.046910138139099
0.039	0.90010429682471	0.048144427192101
0.04	0.90010971263029	0.049378701579934
0.041	0.90011526540948	0.050612960927201
0.042	0.90012095515213	0.051847204858556
0.043	0.90012678184786	0.053081432998698
0.044	0.900132745486	0.054315644972379
0.045	0.90013884605566	0.055549840404403
0.046	0.90014508354569	0.056784018919625
0.047	0.9001514579447	0.058018180142956
0.048	0.90015796924102	0.05925232369936
0.049	0.90016461742278	0.060486449213861
0.05	0.90017140247781	0.061720556311536
0.051	0.90017832439373	0.062954644617525
0.052	0.90018538315788	0.064188713757026
0.053	0.90019257875738	0.065422763355298
0.054	0.90019991117906	0.066656793037664
0.055	0.90020738040955	0.067890802429509
0.056	0.90021498643518	0.069124791156283
0.057	0.90022272924209	0.070358758843503
0.058	0.9002306088161	0.071592705116753
0.059	0.90023862514285	0.072826629601683
0.06	0.90024677820769	0.074060531924017
0.061	0.90025506799572	0.075294411709546
0.062	0.9002634944918	0.076528268584134
0.063	0.90027205768056	0.077762102173719
0.064	0.90028075754635	0.078995912104312
0.065	0.9002895940733	0.080229698002001
0.066	0.90029856724525	0.081463459492948
0.067	0.90030767704584	0.082697196203397
0.068	0.90031692345843	0.083930907759668
0.069	0.90032630646615	0.085164593788162
0.07	0.90033582605185	0.08639825391536
0.071	0.90034548219818	0.087631887767829
0.072	0.9003552748875	0.088865494972217
0.073	0.90036520410195	0.090099075155258
0.074	0.90037526982339	0.091332627943772
0.075	0.90038547203347	0.092566152964666
0.076	0.90039581071357	0.093799649844935
0.077	0.90040628584481	0.095033118211666
0.078	0.9004168974081	0.096266557692035
0.079	0.90042764538407	0.09749996791331
0.08	0.90043852975311	0.098733348502853
0.081	0.90044955049537	0.099966699088119
0.082	0.90046070759075	0.10120001929666
0.083	0.90047200101889	0.10243330875613
0.084	0.90048343075921	0.10366656709426
0.085	0.90049499679085	0.10489979393891
0.086	0.90050669909272	0.10613298891802
0.087	0.9005185376435	0.10736615165964
0.088	0.90053051242158	0.10859928179192
0.089	0.90054262340515	0.10983237894311
0.09	0.90055487057211	0.11106544274157
0.091	0.90056725390016	0.11229847281576
0.092	0.90057977336671	0.11353146879426
0.093	0.90059242894895	0.11476443030575
0.094	0.90060522062381	0.11599735697901
0.095	0.90061814836799	0.11723024844295
0.096	0.90063121215792	0.11846310432657
0.097	0.90064441196981	0.11969592425902
0.098	0.90065774777961	0.12092870786951
0.099	0.90067121956301	0.12216145478742
0.1	0.90068482729549	0.12339416464222
0.101	0.90069857095225	0.12462683706348
0.102	0.90071245050827	0.12585947168093
0.103	0.90072646593827	0.12709206812438
0.104	0.90074061721673	0.1283246260238
0.105	0.90075490431788	0.12955714500925
0.106	0.9007693272157	0.13078962471093
0.107	0.90078388588395	0.13202206475916
0.108	0.90079858029612	0.13325446478438
0.109	0.90081341042546	0.13448682441717
0.11	0.90082837624499	0.13571914328824
0.111	0.90084347772746	0.13695142102841
0.112	0.9008587148454	0.13818365726864
0.113	0.90087408757109	0.13941585164003
0.114	0.90088959587655	0.1406480037738
0.115	0.90090523973358	0.14188011330131
0.116	0.90092101911371	0.14311217985406
0.117	0.90093693398826	0.14434420306368
0.118	0.90095298432826	0.14557618256194
0.119	0.90096917010455	0.14680811798074
0.12	0.90098549128768	0.14804000895213
0.121	0.90100194784799	0.14927185510829
0.122	0.90101853975555	0.15050365608156
0.123	0.90103526698022	0.15173541150442
0.124	0.90105212949157	0.15296712100946
0.125	0.90106912725898	0.15419878422946
0.126	0.90108626025155	0.15543040079733
0.127	0.90110352843815	0.15666197034611
0.128	0.90112093178741	0.15789349250902
0.129	0.90113847026771	0.15912496691941
0.13	0.9011561438472	0.16035639321078
0.131	0.90117395249378	0.16158777101679
0.132	0.90119189617511	0.16281909997126
0.133	0.9012099748586	0.16405037970814
0.134	0.90122818851143	0.16528160986155
0.135	0.90124653710053	0.16651279006578
0.136	0.90126502059261	0.16774391995526
0.137	0.9012836389541	0.16897499916458
0.138	0.90130239215123	0.17020602732849
0.139	0.90132128014996	0.17143700408192
0.14	0.90134030291602	0.17266792905993
0.141	0.90135946041491	0.17389880189777
0.142	0.90137875261186	0.17512962223084
0.143	0.9013981794719	0.17636038969471
0.144	0.90141774095978	0.17759110392512
0.145	0.90143743704004	0.17882176455797
0.146	0.90145726767696	0.18005237122934
0.147	0.9014772328346	0.18128292357547
0.148	0.90149733247677	0.18251342123278
0.149	0.90151756656702	0.18374386383785
0.15	0.90153793506871	0.18497425102744
0.151	0.90155843794492	0.18620458243848
0.152	0.90157907515849	0.1874348577081
0.153	0.90159984667206	0.18866507647357
0.154	0.90162075244798	0.18989523837235
0.155	0.90164179244841	0.1911253430421
0.156	0.90166296663524	0.19235539012064
0.157	0.90168427497013	0.19358537924597
0.158	0.90170571741451	0.19481531005627
0.159	0.90172729392956	0.19604518218992
0.16	0.90174900447623	0.19727499528547
0.161	0.90177084901524	0.19850474898166
0.162	0.90179282750705	0.19973444291742
0.163	0.9018149399119	0.20096407673186
0.164	0.90183718618979	0.20219365006428
0.165	0.90185956630049	0.20342316255418
0.166	0.90188208020352	0.20465261384123
0.167	0.90190472785818	0.20588200356532
0.168	0.9019275092235	0.20711133136651
0.169	0.90195042425833	0.20834059688506
0.17	0.90197347292123	0.20956979976143
0.171	0.90199665517055	0.21079893963627
0.172	0.90201997096441	0.21202801615044
0.173	0.90204342026068	0.21325702894498
0.174	0.902067003017	0.21448597766115
0.175	0.90209071919077	0.21571486194038
0.176	0.90211456873917	0.21694368142434
0.177	0.90213855161913	0.21817243575488
0.178	0.90216266778736	0.21940112457404
0.179	0.90218691720032	0.22062974752411
0.18	0.90221129981424	0.22185830424753
0.181	0.90223581558513	0.223086794387
0.182	0.90226046446875	0.22431521758538
0.183	0.90228524642063	0.22554357348578
0.184	0.90231016139608	0.2267718617315
0.185	0.90233520935015	0.22800008196604
0.186	0.90236039023768	0.22922823383314
0.187	0.90238570401328	0.23045631697673
0.188	0.9024111506313	0.23168433104097
0.189	0.90243673004589	0.23291227567022
0.19	0.90246244221094	0.23414015050907
0.191	0.90248828708013	0.23536795520232
0.192	0.9025142646069	0.236595689395
0.193	0.90254037474446	0.23782335273234
0.194	0.90256661744578	0.2390509448598
0.195	0.9025929926636	0.24027846542307
0.196	0.90261950035045	0.24150591406806
0.197	0.9026461404586	0.24273329044089
0.198	0.90267291294011	0.24396059418791
0.199	0.90269981774679	0.24518782495571
0.2	0.90272685483026	0.24641498239109
0.201	0.90275402414185	0.24764206614109
0.202	0.90278132563271	0.24886907585297
0.203	0.90280875925375	0.25009601117423
0.204	0.90283632495562	0.25132287175258
0.205	0.90286402268879	0.25254965723598
0.206	0.90289185240346	0.25377636727263
0.207	0.90291981404962	0.25500300151095
0.208	0.90294790757702	0.25622955959959
0.209	0.90297613293521	0.25745604118745
0.21	0.90300449007347	0.25868244592366
0.211	0.90303297894089	0.25990877345758
0.212	0.90306159948631	0.26113502343884
0.213	0.90309035165834	0.26236119551727
0.214	0.90311923540539	0.26358728934297
0.215	0.90314825067561	0.26481330456626
0.216	0.90317739741694	0.26603924083773
0.217	0.90320667557709	0.26726509780819
0.218	0.90323608510355	0.2684908751287
0.219	0.90326562594358	0.26971657245058
0.22	0.9032952980442	0.27094218942538
0.221	0.90332510135222	0.27216772570491
0.222	0.90335503581423	0.27339318094122
0.223	0.90338510137658	0.27461855478661
0.224	0.90341529798541	0.27584384689365
0.225	0.9034456255866	0.27706905691514
0.226	0.90347608412586	0.27829418450413
0.227	0.90350667354863	0.27951922931396
0.228	0.90353739380015	0.28074419099817
0.229	0.90356824482543	0.28196906921061
0.23	0.90359922656925	0.28319386360535
0.231	0.90363033897617	0.28441857383674
0.232	0.90366158199053	0.28564319955936
0.233	0.90369295555644	0.28686774042809
0.234	0.90372445961781	0.28809219609804
0.235	0.90375609411829	0.2893165662246
0.236	0.90378785900134	0.29054085046341
0.237	0.90381975421018	0.29176504847038
0.238	0.90385177968782	0.29298915990167
0.239	0.90388393537703	0.29421318441374
0.24	0.90391622122038	0.29543712166329
0.241	0.90394863716021	0.29666097130729
0.242	0.90398118313863	0.29788473300298
0.243	0.90401385909754	0.29910840640787
0.244	0.90404666497862	0.30033199117976
0.245	0.90407960072334	0.30155548697668
0.246	0.90411266627291	0.30277889345696
0.247	0.90414586156837	0.30400221027921
0.248	0.9041791865505	0.3052254371023
0.249	0.9042126411599	0.30644857358538
0.25	0.90424622533691	0.30767161938787
0.251	0.90427993902168	0.30889457416947
0.252	0.90431378215414	0.31011743759017
0.253	0.90434775467398	0.31134020931022
0.254	0.90438185652069	0.31256288899015
0.255	0.90441608763355	0.31378547629081
0.256	0.90445044795159	0.31500797087327
0.257	0.90448493741367	0.31623037239893
0.258	0.90451955595838	0.31745268052945
0.259	0.90455430352414	0.31867489492679
0.26	0.90458918004912	0.31989701525318
0.261	0.9046241854713	0.32111904117115
0.262	0.90465931972842	0.32234097234351
0.263	0.90469458275802	0.32356280843336
0.264	0.90472997449743	0.32478454910409
0.265	0.90476549488374	0.32600619401937
0.266	0.90480114385384	0.32722774284317
0.267	0.90483692134442	0.32844919523977
0.268	0.90487282729192	0.3296705508737
0.269	0.90490886163261	0.33089180940982
0.27	0.9049450243025	0.33211297051328
0.271	0.90498131523743	0.3333340338495
0.272	0.90501773437299	0.33455499908422
0.273	0.90505428164457	0.33577586588348
0.274	0.90509095698737	0.3369966339136
0.275	0.90512776033634	0.33821730284121
0.276	0.90516469162624	0.33943787233324
0.277	0.9052017507916	0.34065834205692
0.278	0.90523893776677	0.34187871167978
0.279	0.90527625248586	0.34309898086966
0.28	0.90531369488278	0.34431914929468
0.281	0.90535126489123	0.34553921662329
0.282	0.90538896244468	0.34675918252425
0.283	0.90542678747642	0.34797904666658
0.284	0.90546473991952	0.34919880871967
0.285	0.90550281970682	0.35041846835317
0.286	0.90554102677097	0.35163802523707
0.287	0.90557936104442	0.35285747904164
0.288	0.90561782245938	0.35407682943748
0.289	0.90565641094787	0.35529607609549
0.29	0.90569512644171	0.35651521868691
0.291	0.9057339688725	0.35773425688325
0.292	0.90577293817162	0.35895319035637
0.293	0.90581203427027	0.36017201877842
0.294	0.90585125709942	0.36139074182187
0.295	0.90589060658985	0.36260935915954
0.296	0.90593008267211	0.36382787046451
0.297	0.90596968527657	0.36504627541022
0.298	0.90600941433338	0.36626457367041
0.299	0.90604926977247	0.36748276491916
0.3	0.9060892515236	0.36870084883084
0.301	0.90612935951629	0.36991882508016
0.302	0.90616959367987	0.37113669334216
0.303	0.90620995394347	0.37235445329218
0.304	0.90625044023601	0.37357210460591
0.305	0.90629105248619	0.37478964695934
0.306	0.90633179062253	0.37600708002881
0.307	0.90637265457334	0.37722440349096
0.308	0.90641364426671	0.37844161702278
0.309	0.90645475963055	0.37965872030157
0.31	0.90649600059256	0.38087571300497
0.311	0.90653736708023	0.38209259481095
0.312	0.90657885902085	0.38330936539781
0.313	0.90662047634151	0.38452602444417
0.314	0.90666221896909	0.385742571629
0.315	0.90670408683029	0.38695900663158
0.316	0.90674607985159	0.38817532913154
0.317	0.90678819795928	0.38939153880886
0.318	0.90683044107943	0.39060763534381
0.319	0.90687280913793	0.39182361841704
0.32	0.90691530206047	0.39303948770951
0.321	0.90695791977252	0.39425524290253
0.322	0.90700066219938	0.39547088367774
0.323	0.90704352926612	0.39668640971714
0.324	0.90708652089763	0.39790182070303
0.325	0.9071296370186	0.3991171163181
0.326	0.90717287755353	0.40033229624534
0.327	0.90721624242669	0.4015473601681
0.328	0.90725973156218	0.40276230777007
0.329	0.90730334488391	0.40397713873529
0.33	0.90734708231556	0.40519185274815
0.331	0.90739094378065	0.40640644949335
0.332	0.90743492920247	0.40762092865598
0.333	0.90747903850414	0.40883528992145
0.334	0.90752327160858	0.41004953297554
0.335	0.90756762843849	0.41126365750434
0.336	0.9076121089164	0.41247766319433
0.337	0.90765671296465	0.41369154973232
0.338	0.90770144050536	0.41490531680546
0.339	0.90774629146047	0.41611896410129
0.34	0.90779126575173	0.41733249130766
0.341	0.90783636330069	0.41854589811279
0.342	0.90788158402871	0.41975918420525
0.343	0.90792692785696	0.42097234927399
0.344	0.9079723947064	0.42218539300826
0.345	0.90801798449781	0.42339831509772
0.346	0.90806369715179	0.42461111523236
0.347	0.90810953258873	0.42582379310253
0.348	0.90815549072883	0.42703634839894
0.349	0.9082015714921	0.42824878081267
0.35	0.90824777479837	0.42946109003513
0.351	0.90829410056727	0.43067327575811
0.352	0.90834054871825	0.43188533767377
0.353	0.90838711917054	0.43309727547462
0.354	0.90843381184321	0.43430908885352
0.355	0.90848062665514	0.43552077750372
0.356	0.90852756352501	0.43673234111881
0.357	0.90857462237131	0.43794377939275
0.358	0.90862180311234	0.43915509201989
0.359	0.90866910566623	0.4403662786949
0.36	0.90871652995091	0.44157733911285
0.361	0.90876407588411	0.44278827296917
0.362	0.90881174338339	0.44399907995965
0.363	0.90885953236613	0.44520975978046
0.364	0.9089074427495	0.44642031212814
0.365	0.9089554744505	0.44763073669958
0.366	0.90900362738594	0.44884103319206
0.367	0.90905190147245	0.45005120130322
0.368	0.90910029662645	0.45126124073109
0.369	0.90914881276421	0.45247115117404
0.37	0.9091974498018	0.45368093233086
0.371	0.90924620765511	0.45489058390066
0.372	0.90929508623982	0.45610010558297
0.373	0.90934408547147	0.45730949707766
0.374	0.90939320526539	0.45851875808501
0.375	0.90944244553672	0.45972788830565
0.376	0.90949180620044	0.4609368874406
0.377	0.90954128717134	0.46214575519125
0.378	0.90959088836401	0.46335449125937
0.379	0.90964060969288	0.46456309534713
0.38	0.9096904510722	0.46577156715704
0.381	0.90974041241603	0.46697990639203
0.382	0.90979049363824	0.46818811275538
0.383	0.90984069465253	0.46939618595077
0.384	0.90989101537243	0.47060412568226
0.385	0.90994145571127	0.47181193165429
0.386	0.90999201558222	0.47301960357168
0.387	0.91004269489825	0.47422714113965
0.388	0.91009349357218	0.47543454406378
0.389	0.91014441151662	0.47664181205005
0.39	0.91019544864402	0.47784894480484
0.391	0.91024660486665	0.47905594203489
0.392	0.9102978800966	0.48026280344734
0.393	0.91034927424579	0.48146952874972
0.394	0.91040078722596	0.48267611764994
0.395	0.91045241894866	0.48388256985632
0.396	0.91050416932528	0.48508888507754
0.397	0.91055603826704	0.4862950630227
0.398	0.91060802568496	0.48750110340126
0.399	0.9106601314899	0.4887070059231
0.4	0.91071235559255	0.48991277029847
0.401	0.91076469790343	0.49111839623804
0.402	0.91081715833286	0.49232388345284
0.403	0.91086973679101	0.49352923165432
0.404	0.91092243318788	0.49473444055432
0.405	0.91097524743326	0.49593950986506
0.406	0.91102817943682	0.49714443929917
0.407	0.91108122910801	0.49834922856967
0.408	0.91113439635615	0.49955387738998
0.409	0.91118768109036	0.50075838547393
0.41	0.91124108321958	0.50196275253571
0.411	0.91129460265262	0.50316697828996
0.412	0.91134823929809	0.50437106245168
0.413	0.91140199306442	0.50557500473629
0.414	0.9114558638599	0.50677880485959
0.415	0.91150985159263	0.5079824625378
0.416	0.91156395617054	0.50918597748754
0.417	0.91161817750141	0.51038934942582
0.418	0.91167251549283	0.51159257807007
0.419	0.91172697005223	0.51279566313811
0.42	0.91178154108687	0.51399860434816
0.421	0.91183622850385	0.51520140141885
0.422	0.9118910322101	0.51640405406923
0.423	0.91194595211237	0.51760656201872
0.424	0.91200098811727	0.51880892498719
0.425	0.91205614013121	0.52001114269488
0.426	0.91211140806047	0.52121321486244
0.427	0.91216679181114	0.52241514121096
0.428	0.91222229128915	0.5236169214619
0.429	0.91227790640026	0.52481855533715
0.43	0.91233363705009	0.52602004255899
0.431	0.91238948314406	0.52722138285014
0.432	0.91244544458746	0.5284225759337
0.433	0.9125015212854	0.5296236215332
0.434	0.91255771314282	0.53082451937257
0.435	0.91261402006451	0.53202526917615
0.436	0.91267044195509	0.53322587066871
0.437	0.91272697871903	0.53442632357541
0.438	0.91278363026062	0.53562662762183
0.439	0.91284039648401	0.53682678253398
0.44	0.91289727729316	0.53802678803826
0.441	0.91295427259191	0.53922664386149
0.442	0.9130113822839	0.54042634973092
0.443	0.91306860627264	0.54162590537421
0.444	0.91312594446145	0.54282531051941
0.445	0.91318339675353	0.54402456489503
0.446	0.91324096305188	0.54522366822997
0.447	0.91329864325938	0.54642262025354
0.448	0.91335643727871	0.54762142069549
0.449	0.91341434501244	0.54882006928598
0.45	0.91347236636294	0.55001856575558
0.451	0.91353050123245	0.5512169098353
0.452	0.91358874952304	0.55241510125654
0.453	0.91364711113663	0.55361313975115
0.454	0.91370558597498	0.55481102505138
0.455	0.9137641739397	0.55600875688991
0.456	0.91382287493224	0.55720633499984
0.457	0.91388168885389	0.5584037591147
0.458	0.9139406156058	0.55960102896842
0.459	0.91399965508896	0.56079814429538
0.46	0.91405880720419	0.56199510483037
0.461	0.91411807185218	0.56319191030861
0.462	0.91417744893346	0.56438856046572
0.463	0.9142369383484	0.56558505503778
0.464	0.91429653999721	0.56678139376128
0.465	0.91435625377998	0.56797757637312
0.466	0.91441607959663	0.56917360261066
0.467	0.9144760173469	0.57036947221166
0.468	0.91453606693043	0.57156518491432
0.469	0.91459622824668	0.57276074045724
0.47	0.91465650119496	0.5739561385795
0.471	0.91471688567444	0.57515137902055
0.472	0.91477738158413	0.57634646152031
0.473	0.9148379888229	0.57754138581912
0.474	0.91489870728947	0.57873615165773
0.475	0.9149595368824	0.57993075877735
0.476	0.91502047750012	0.58112520691959
0.477	0.91508152904091	0.58231949582652
0.478	0.91514269140288	0.58351362524061
0.479	0.91520396448402	0.58470759490479
0.48	0.91526534818215	0.5859014045624
0.481	0.91532684239497	0.58709505395723
0.482	0.91538844702002	0.58828854283349
0.483	0.91545016195468	0.58948187093582
0.484	0.91551198709622	0.59067503800931
0.485	0.91557392234172	0.59186804379947
0.486	0.91563596758816	0.59306088805226
0.487	0.91569812273235	0.59425357051404
0.488	0.91576038767096	0.59544609093164
0.489	0.91582276230052	0.59663844905231
0.49	0.91588524651742	0.59783064462374
0.491	0.91594784021789	0.59902267739406
0.492	0.91601054329805	0.60021454711182
0.493	0.91607335565384	0.60140625352603
0.494	0.91613627718109	0.6025977963861
0.495	0.91619930777547	0.60378917544193
0.496	0.91626244733253	0.60498039044381
0.497	0.91632569574764	0.6061714411425
0.498	0.91638905291607	0.60736232728918
0.499	0.91645251873293	0.60855304863547
0.5	0.91651609309321	0.60974360493345
0.501	0.91657977589172	0.6109339959356
